'Id: "" Comment: "" Operator: "administrator" Anode: "Co" Scantype: "locked coupled" TimePerStep: "151.2" 
30 2087.652
30.03 2073.565
30.06 2064.091
30.09 2055.444
30.12 2112.2
30.15 2122.328
30.18 2058.836
30.21 2143.07
30.24 2128.921
30.27 2022.655
30.3 2028.577
30.33 2027.945
30.36 2016.251
30.39 2059.101
30.42 2021.019
30.45 2046.578
30.48 2125.622
30.51 2047.017
30.54 1984.314
30.57 2072.461
30.6 2048.151
30.63 1918.311
30.66 1984.567
30.69 1952.72
30.72 1971.21
30.75 2008.856
30.78 2066.792
30.81 2094.919
30.84 2000.423
30.87 1944.069
30.9 2084.657
30.93 2072.372
30.96 2002.306
30.99 1917.536
31.02 2018.978
31.05 1941.613
31.08 2079.731
31.11 1934.244
31.14 2018.069
31.17 1953.442
31.2 1916.091
31.23 1947.173
31.26 1969.69
31.29 1891.542
31.32 1945.633
31.35 1906.119
31.38 1942.672
31.41 2007.679
31.44 1909.651
31.47 1954.872
31.5 1881.504
31.53 1872.506
31.56 1917.092
31.59 1910.059
31.62 1815.181
31.65 1877.411
31.68 1813.319
31.71 1871.997
31.74 1890.057
31.77 1823.742
31.8 1880.759
31.83 1833.33
31.86 1926.712
31.89 1946.278
31.92 1830.524
31.95 1853.026
31.98 1920.609
32.01 1828.89
32.04 1852.349
32.07 1844.52
32.1 1874.101
32.13 1737.938
32.16 1740.898
32.19 1870.889
32.22 1906.198
32.25 1790.376
32.28 1856.494
32.31 1842.214
32.34 1863.143
32.37 1813.319
32.4 1908.201
32.43 1844.127
32.46 1743.456
32.49 1815.315
32.52 1752.257
32.55 1766.086
32.58 1823.876
32.61 1864.983
32.64 1781.643
32.67 1794.566
32.7 1742.904
32.73 1781.554
32.76 1782.258
32.79 1831.007
32.82 1709.644
32.85 1778.768
32.88 1773.523
32.91 1678.32
32.94 1714.023
32.97 1790.391
33 1734.414
33.03 1744.463
33.06 1762.086
33.09 1722.959
33.12 1688.435
33.15 1744.91
33.18 1721.113
33.21 1804.904
33.24 1730.188
33.27 1678.375
33.3 1716.568
33.33 1708.75
33.36 1715.239
33.39 1827.56
33.42 1735.226
33.45 1738.393
33.48 1719.556
33.51 1778.745
33.54 1698.587
33.57 1660.38
33.6 1708.922
33.63 1711.615
33.66 1676.187
33.69 1751.878
33.72 1709.294
33.75 1689.663
33.78 1690.285
33.81 1659.047
33.84 1733.119
33.87 1630.093
33.9 1665.601
33.93 1660.499
33.96 1633.268
33.99 1623.059
34.02 1619.295
34.05 1654.241
34.08 1631.149
34.11 1618.152
34.14 1675.276
34.17 1637.207
34.2 1631.985
34.23 1632.888
34.26 1631.368
34.29 1629.228
34.32 1592.709
34.35 1681.164
34.38 1680.313
34.41 1703.292
34.44 1675.595
34.47 1649.495
34.5 1560.324
34.53 1593.916
34.56 1567.772
34.59 1561.55
34.62 1642.949
34.65 1543.372
34.68 1622.378
34.71 1607.956
34.74 1557.4
34.77 1696.379
34.8 1584.632
34.83 1603.072
34.86 1585.762
34.89 1535.404
34.92 1571.93
34.95 1598.155
34.98 1587.675
35.01 1617.697
35.04 1606.702
35.07 1526.96
35.1 1523.295
35.13 1622.139
35.16 1557.889
35.19 1569.181
35.22 1535.397
35.25 1531.258
35.28 1548.472
35.31 1545.922
35.34 1599.985
35.37 1527.641
35.4 1539.492
35.43 1545.593
35.46 1575.086
35.49 1557.385
35.52 1540.043
35.55 1528.885
35.58 1511.845
35.61 1503.788
35.64 1461.54
35.67 1537.252
35.7 1478.674
35.73 1466.309
35.76 1435.233
35.79 1376.093
35.82 1546.458
35.85 1586.964
35.88 1466.769
35.91 1502.711
35.94 1483.052
35.97 1542.445
36 1470.707
36.03 1505.119
36.06 1402.846
36.09 1500.79
36.12 1471.444
36.15 1467.375
36.18 1463.753
36.21 1476.557
36.24 1425.695
36.27 1521.695
36.3 1372.611
36.33 1495.88
36.36 1475.284
36.39 1463.034
36.42 1502.803
36.45 1416.941
36.48 1469.987
36.51 1425.015
36.54 1431.489
36.57 1366.786
36.6 1430.373
36.63 1415.802
36.66 1437.771
36.69 1371.937
36.72 1458.737
36.75 1443.654
36.78 1448.567
36.81 1317.886
36.84 1360.074
36.87 1384.116
36.9 1356.651
36.93 1443.811
36.96 1444.401
36.99 1410.702
37.02 1389.38
37.05 1361.958
37.08 1403.557
37.11 1385.011
37.14 1392.813
37.17 1369.187
37.2 1311.306
37.23 1307.188
37.26 1331.687
37.29 1333.59
37.32 1360.299
37.35 1364.422
37.38 1339.924
37.41 1348.453
37.44 1377.191
37.47 1348.777
37.5 1309.868
37.53 1355.871
37.56 1332.51
37.59 1366.134
37.62 1356.251
37.65 1370.692
37.68 1295.011
37.71 1346.611
37.74 1329.691
37.77 1349.296
37.8 1247.927
37.83 1293.339
37.86 1340.912
37.89 1399.94
37.92 1344.883
37.95 1289.642
37.98 1327.584
38.01 1272.712
38.04 1331.38
38.07 1326.412
38.1 1248.961
38.13 1247.122
38.16 1254.075
38.19 1276.418
38.22 1271.55
38.25 1258.574
38.28 1290.074
38.31 1293.492
38.34 1228.089
38.37 1189.195
38.4 1247.3
38.43 1278.57
38.46 1277.282
38.49 1280.181
38.52 1247.941
38.55 1312.503
38.58 1326.687
38.61 1231.603
38.64 1326.034
38.67 1223.393
38.7 1194.389
38.73 1213.672
38.76 1267.997
38.79 1250.578
38.82 1269.287
38.85 1234.053
38.88 1270.842
38.91 1248.193
38.94 1209.177
38.97 1217.27
39 1247.906
39.03 1206.155
39.06 1259.742
39.09 1283.694
39.12 1233.005
39.15 1184.481
39.18 1161.792
39.21 1174.018
39.24 1215.684
39.27 1169.599
39.3 1212.373
39.33 1145.727
39.36 1263.618
39.39 1149.733
39.42 1155.297
39.45 1225.537
39.48 1257.882
39.51 1186.089
39.54 1220.424
39.57 1188.391
39.6 1251.909
39.63 1183.938
39.66 1110.94
39.69 1180.113
39.72 1182.922
39.75 1198.954
39.78 1181.461
39.81 1193.465
39.84 1148.364
39.87 1130.502
39.9 1158.402
39.93 1133.806
39.96 1098.172
39.99 1191.107
40.02 1106.903
40.05 1194.204
40.08 1153.649
40.11 1156.248
40.14 1149.021
40.17 1157.973
40.2 1133.391
40.23 1129.779
40.26 1147.642
40.29 1168.522
40.32 1235.766
40.35 1163.191
40.38 1160.931
40.41 1139.824
40.44 1256.884
40.47 1178.033
40.5 1249.503
40.53 1211.041
40.56 1299.339
40.59 1299.296
40.62 1310.025
40.65 1309.901
40.68 1377.472
40.71 1619.132
40.74 1725.36
40.77 1825.544
40.8 2083.573
40.83 2287.078
40.86 2539.893
40.89 3054.463
40.92 3571.755
40.95 3496.276
40.98 3044.941
41.01 2660.305
41.04 2258.156
41.07 1836.189
41.1 1523.582
41.13 1265.661
41.16 1265.441
41.19 1236.949
41.22 1145.731
41.25 1152.269
41.28 1141.878
41.31 1148.425
41.34 1160.46
41.37 1080.325
41.4 1053.193
41.43 1052.651
41.46 1144.006
41.49 1047.245
41.52 1105.079
41.55 1095.641
41.58 1095.504
41.61 1097.503
41.64 1147.24
41.67 1091.262
41.7 1097.541
41.73 1136.295
41.76 1081.351
41.79 1078.869
41.82 1027.691
41.85 1053.427
41.88 1050.317
41.91 1060.475
41.94 1035.585
41.97 1057.92
42 972.2602
42.03 1026.789
42.06 1026.67
42.09 993.8436
42.12 1086.675
42.15 1006.412
42.18 1029.795
42.21 992.4879
42.24 988.7233
42.27 1000.856
42.3 970.6107
42.33 1013.804
42.36 994.0329
42.39 1067.421
42.42 985.0338
42.45 1018.737
42.48 1026.758
42.51 918.2266
42.54 1003.534
42.57 1019.207
42.6 1047.852
42.63 966.0654
42.66 934.4386
42.69 996.7676
42.72 964.8876
42.75 946.2651
42.78 1025.354
42.81 940.3815
42.84 954.9891
42.87 989.934
42.9 959.962
42.93 983.4466
42.96 947.233
42.99 968.8566
43.02 975.4561
43.05 874.4085
43.08 932.9208
43.11 965.1154
43.14 934.2096
43.17 935.4357
43.2 948.3285
43.23 931.687
43.26 922.0165
43.29 972.4982
43.32 929.7136
43.35 929.8449
43.38 913.2507
43.41 967.4228
43.44 955.3577
43.47 906.642
43.5 923.3668
43.53 905.6498
43.56 960.0197
43.59 926.9189
43.62 911.132
43.65 890.9504
43.68 905.4106
43.71 907.5666
43.74 908.3879
43.77 962.9763
43.8 961.3946
43.83 969.9987
43.86 951.5522
43.89 878.1777
43.92 956.5692
43.95 945.7302
43.98 958.9039
44.01 1014.135
44.04 958.4841
44.07 964.5818
44.1 1010.987
44.13 986.3642
44.16 946.3021
44.19 923.3554
44.22 949.8849
44.25 959.7596
44.28 978.1929
44.31 1017.62
44.34 949.3389
44.37 970.6352
44.4 1026.501
44.43 1047.774
44.46 1104.753
44.49 1152.884
44.52 1165.33
44.55 1253.047
44.58 1293.463
44.61 1361.589
44.64 1440.88
44.67 1540.428
44.7 1615.523
44.73 1606.167
44.76 1515.135
44.79 1388.17
44.82 1308.307
44.85 1278.487
44.88 1157.86
44.91 1059.427
44.94 995.3266
44.97 1034.213
45 1059.257
45.03 972.3264
45.06 923.4417
45.09 974.7064
45.12 969.9329
45.15 1002.376
45.18 937.1887
45.21 969.0143
45.24 965.4036
45.27 1016.917
45.3 980.9976
45.33 992.7073
45.36 1086.66
45.39 1014.173
45.42 1044.826
45.45 1067.034
45.48 1013.696
45.51 992.972
45.54 1053.718
45.57 1025.799
45.6 972.8915
45.63 1001.236
45.66 969.816
45.69 986.742
45.72 983.4381
45.75 928.4351
45.78 954.1892
45.81 991.7014
45.84 946.8104
45.87 939.8997
45.9 969.824
45.93 958.1302
45.96 942.9332
45.99 933.5765
46.02 923.6283
46.05 922.1344
46.08 973.791
46.11 976.1375
46.14 948.1954
46.17 967.1507
46.2 947.1649
46.23 944.0032
46.26 1024.534
46.29 1078.575
46.32 1003.108
46.35 1055.024
46.38 1041.07
46.41 1144.223
46.44 1227.731
46.47 1288.276
46.5 1331.302
46.53 1441.736
46.56 1577.594
46.59 1626.222
46.62 1804.62
46.65 1938.482
46.68 2145.115
46.71 2290.97
46.74 2475.585
46.77 2576.126
46.8 2689.654
46.83 2866.184
46.86 2966.582
46.89 3137.627
46.92 3106
46.95 2850.385
46.98 2454.581
47.01 2144.37
47.04 1930.557
47.07 1679.917
47.1 1405.812
47.13 1278.874
47.16 1128.227
47.19 1095.853
47.22 1127.135
47.25 1002.081
47.28 1042.278
47.31 974.4395
47.34 952.0605
47.37 900.1292
47.4 983.8316
47.43 845.6315
47.46 924.985
47.49 890.686
47.52 853.9656
47.55 877.7125
47.58 819.3394
47.61 870.1645
47.64 835.4891
47.67 878.7494
47.7 847.1723
47.73 834.5414
47.76 876.6496
47.79 823.7098
47.82 781.6469
47.85 777.0545
47.88 801.4501
47.91 762.078
47.94 832.5003
47.97 791.7065
48 788.5869
48.03 811.79
48.06 753.3552
48.09 838.0724
48.12 803.4508
48.15 736.3101
48.18 823.4584
48.21 799.1202
48.24 819.6398
48.27 802.8794
48.3 812.8547
48.33 802.4859
48.36 787.6354
48.39 792.9868
48.42 820.3463
48.45 810.611
48.48 741.4417
48.51 741.2096
48.54 770.0499
48.57 804.5997
48.6 759.5886
48.63 797.2035
48.66 742.5222
48.69 800.8222
48.72 781.1922
48.75 764.6799
48.78 755.6321
48.81 739.8765
48.84 739.0854
48.87 749.9833
48.9 743.7015
48.93 783.4596
48.96 785.4223
48.99 798.0453
49.02 744.8615
49.05 786.3398
49.08 739.4588
49.11 706.6666
49.14 720.7327
49.17 695.2092
49.2 742.6335
49.23 766.4179
49.26 748.7825
49.29 719.6982
49.32 740.1108
49.35 720.7809
49.38 735.7142
49.41 732.886
49.44 713.7599
49.47 756.8231
49.5 740.2658
49.53 764.787
49.56 740.4526
49.59 777.8346
49.62 724.7155
49.65 679.5854
49.68 735.4333
49.71 728.2399
49.74 757.9167
49.77 694.2499
49.8 764.7716
49.83 741.9711
49.86 728.14
49.89 720.6163
49.92 730.785
49.95 696.9719
49.98 700.6273
50.01 710.2311
50.04 691.3252
50.07 684.8046
50.1 692.4905
50.13 747.1963
50.16 725.0057
50.19 725.4377
50.22 694.8585
50.25 707.6407
50.28 705.1815
50.31 756.9989
50.34 751.3178
50.37 644.9958
50.4 753.1796
50.43 734.8562
50.46 717.8582
50.49 726.3167
50.52 677.3622
50.55 695.7407
50.58 671.7451
50.61 719.4218
50.64 720.3718
50.67 749.5513
50.7 662.7203
50.73 709.7108
50.76 713.8994
50.79 720.7892
50.82 672.1257
50.85 687.9846
50.88 759.6797
50.91 699.829
50.94 696.9565
50.97 711.0434
51 689.7195
51.03 685.4655
51.06 720.5343
51.09 716.2429
51.12 744.9553
51.15 709.7899
51.18 693.928
51.21 709.4671
51.24 668.46
51.27 712.1489
51.3 745.5001
51.33 653.0573
51.36 686.5236
51.39 671.0768
51.42 660.3975
51.45 712.1073
51.48 711.9532
51.51 648.8129
51.54 704.5027
51.57 677.728
51.6 696.4055
51.63 731.4667
51.66 666.0118
51.69 618.1715
51.72 677.4759
51.75 712.6169
51.78 641.8851
51.81 647.7238
51.84 657.903
51.87 698.3729
51.9 641.416
51.93 681.9012
51.96 692.9825
51.99 686.8167
52.02 658.4979
52.05 677.0869
52.08 675.9033
52.11 705.9487
52.14 677.7083
52.17 693.1843
52.2 680.0529
52.23 672.365
52.26 677.4454
52.29 713.3387
52.32 657.6985
52.35 671.8184
52.38 615.7499
52.41 703.4804
52.44 689.0463
52.47 638.6487
52.5 682.9355
52.53 712.4657
52.56 649.1955
52.59 699.4663
52.62 654.1705
52.65 634.9603
52.68 646.9236
52.71 626.2648
52.74 628.9763
52.77 681.8892
52.8 641.4757
52.83 581.0972
52.86 654.8918
52.89 712.041
52.92 666.4659
52.95 638.5258
52.98 651.5853
53.01 652.154
53.04 624.0491
53.07 660.6802
53.1 668.8111
53.13 629.9017
53.16 589.5316
53.19 637.6305
53.22 624.2229
53.25 656.1559
53.28 708.5754
53.31 635.2665
53.34 666.5625
53.37 622.4008
53.4 635.323
53.43 630.3565
53.46 628.9058
53.49 652.0887
53.52 656.4369
53.55 692.3384
53.58 642.6339
53.61 667.4094
53.64 614.2646
53.67 674.5845
53.7 652.8722
53.73 624.5939
53.76 614.2125
53.79 621.729
53.82 673.8309
53.85 560.7648
53.88 604.3922
53.91 609.6846
53.94 615.6608
53.97 622.908
54 632.889
54.03 601.9548
54.06 598.8455
54.09 627.9668
54.12 571.5409
54.15 632.7147
54.18 592.7934
54.21 622.0969
54.24 675.3192
54.27 598.5724
54.3 641.1839
54.33 644.2933
54.36 657.6004
54.39 603.6051
54.42 638.8104
54.45 627.0582
54.48 619.5762
54.51 584.3771
54.54 599.5074
54.57 647.4549
54.6 629.1052
54.63 617.8268
54.66 612.4001
54.69 637.5783
54.72 621.9669
54.75 617.4492
54.78 609.7617
54.81 597.7126
54.84 624.9286
54.87 600.1152
54.9 602.8256
54.93 554.1563
54.96 578.4471
54.99 642.4017
55.02 660.6671
55.05 589.7453
55.08 609.2792
55.11 574.01
55.14 575.9577
55.17 597.5432
55.2 593.9078
55.23 597.6688
55.26 617.1826
55.29 635.5829
55.32 611.6691
55.35 639.845
55.38 617.8926
55.41 577.8872
55.44 646.5542
55.47 634.5697
55.5 619.8198
55.53 585.8156
55.56 608.6678
55.59 579.2741
55.62 628.1342
55.65 602.4791
55.68 635.8868
55.71 552.0732
55.74 609.294
55.77 599.6902
55.8 631.2028
55.83 606.6862
55.86 583.316
55.89 623.1851
55.92 601.0374
55.95 577.1514
55.98 611.8455
56.01 610.9815
56.04 575.0535
56.07 565.598
56.1 623.2201
56.13 612.6292
56.16 595.5314
56.19 596.035
56.22 621.1301
56.25 599.8192
56.28 599.5768
56.31 607.2234
56.34 579.1807
56.37 628.4442
56.4 628.5357
56.43 575.0693
56.46 605.3638
56.49 605.105
56.52 576.0699
56.55 608.4908
56.58 602.6214
56.61 558.8835
56.64 608.8171
56.67 577.2158
56.7 618.6083
56.73 590.9156
56.76 579.2134
56.79 583.2986
56.82 583.8411
56.85 579.815
56.88 583.445
56.91 573.3925
56.94 577.3782
56.97 603.8177
57 545.2139
57.03 600.1255
57.06 597.3589
57.09 548.9285
57.12 611.6591
57.15 583.2899
57.18 568.3594
57.21 546.965
57.24 554.1821
57.27 574.7334
57.3 584.8932
57.33 575.2498
57.36 569.4568
57.39 544.3272
57.42 559.1082
57.45 541.9926
57.48 576.3699
57.51 566.6223
57.54 588.2949
57.57 572.8401
57.6 534.6014
57.63 554.7501
57.66 556.4839
57.69 537.8995
57.72 600.836
57.75 533.1695
57.78 528.597
57.81 577.0311
57.84 556.3019
57.87 550.8265
57.9 587.1331
57.93 602.3235
57.96 570.2895
57.99 541.4034
58.02 545.1132
58.05 572.6262
58.08 533.0873
58.11 581.3555
58.14 560.1607
58.17 564.1443
58.2 550.9753
58.23 558.0954
58.26 555.5357
58.29 558.4439
58.32 557.7367
58.35 584.7267
58.38 529.5735
58.41 537.2462
58.44 508.462
58.47 543.0051
58.5 562.4944
58.53 553.3948
58.56 527.3304
58.59 555.2686
58.62 551.1935
58.65 524.3005
58.68 530.4862
58.71 538.9446
58.74 549.6235
58.77 540.4218
58.8 554.5494
58.83 534.2962
58.86 532.3727
58.89 532.9531
58.92 547.2005
58.95 556.0878
58.98 536.3693
59.01 551.5016
59.04 562.587
59.07 553.9108
59.1 542.7672
59.13 530.4872
59.16 561.9689
59.19 555.3696
59.22 524.3164
59.25 554.1604
59.28 555.1769
59.31 549.189
59.34 509.1819
59.37 503.5269
59.4 519.5161
59.43 554.0512
59.46 514.1165
59.49 499.8269
59.52 552.4821
59.55 556.868
59.58 510.4973
59.61 534.6207
59.64 509.4592
59.67 531.7245
59.7 484.9607
59.73 558.4557
59.76 522.3138
59.79 515.9091
59.82 522.0062
59.85 555.2687
59.88 536.6228
59.91 527.8604
59.94 519.926
59.97 482.7129
60 531.1786
60.03 556.2358
60.06 537.6923
60.09 501.4105
60.12 497.6093
60.15 538.1595
60.18 559.0337
60.21 518.371
60.24 544.6371
60.27 515.7374
60.3 511.9529
60.33 531.541
60.36 489.3662
60.39 478.8305
60.42 486.1982
60.45 546.5436
60.48 538.5565
60.51 531.4545
60.54 566.3088
60.57 546.8758
60.6 528.3055
60.63 513.6678
60.66 500.3691
60.69 514.9551
60.72 532.7682
60.75 540.3306
60.78 514.7562
60.81 512.2851
60.84 544.0113
60.87 498.6571
60.9 525.0659
60.93 528.3737
60.96 530.6888
60.99 499.0783
61.02 527.7908
61.05 508.3538
61.08 537.8904
61.11 514.5599
61.14 530.4977
61.17 515.768
61.2 506.3365
61.23 481.7379
61.26 562.8826
61.29 496.2472
61.32 509.5149
61.35 453.7292
61.38 557.6555
61.41 503.8304
61.44 567.2502
61.47 527.6497
61.5 518.8459
61.53 502.2956
61.56 554.9881
61.59 558.1879
61.62 556.0823
61.65 583.2536
61.68 588.8025
61.71 570.8909
61.74 569.0139
61.77 584.0787
61.8 594.4782
61.83 605.581
61.86 627.0491
61.89 616.1603
61.92 661.7297
61.95 674.6337
61.98 647.236
62.01 611.2124
62.04 679.1212
62.07 692.0725
62.1 702.5278
62.13 752.3359
62.16 787.6725
62.19 825.6395
62.22 846.1635
62.25 838.4542
62.28 873.6151
62.31 782.2957
62.34 721.4833
62.37 702.138
62.4 667.1843
62.43 695.7896
62.46 651.397
62.49 594.3007
62.52 599.641
62.55 556.133
62.58 525.6069
62.61 557.7491
62.64 508.2265
62.67 559.1412
62.7 523.155
62.73 529.4622
62.76 536.3307
62.79 502.9844
62.82 520.2715
62.85 501.1046
62.88 517.0089
62.91 506.8622
62.94 478.9836
62.97 499.7019
63 502.8661
63.03 489.3313
63.06 448.9324
63.09 458.9628
63.12 515.9894
63.15 487.2646
63.18 536.9243
63.21 483.6873
63.24 476.4134
63.27 508.2628
63.3 494.3784
63.33 551.1064
63.36 466.2723
63.39 528.2893
63.42 473.2487
63.45 513.228
63.48 499.1022
63.51 542.8332
63.54 493.6534
63.57 479.9789
63.6 490.359
63.63 498.4393
63.66 465.2479
63.69 475.3469
63.72 530.5052
63.75 476.2432
63.78 496.3871
63.81 521.4838
63.84 475.1314
63.87 475.9576
63.9 460.4497
63.93 512.7021
63.96 485.0646
63.99 527.0231
64.02 484.3012
64.05 469.7263
64.08 463.0746
64.11 453.4074
64.14 485.3788
64.17 482.9638
64.2 515.9333
64.23 483.4885
64.26 484.6403
64.29 453.687
64.32 479.9749
64.35 470.5414
64.38 515.1448
64.41 527.3549
64.44 476.045
64.47 491.1164
64.5 480.0739
64.53 484.0245
64.56 494.3423
64.59 471.3512
64.62 482.6086
64.65 504.5191
64.68 507.814
64.71 497.454
64.74 486.9247
64.77 460.6452
64.8 453.8026
64.83 474.8074
64.86 493.9405
64.89 452.481
64.92 467.5827
64.95 478.1606
64.98 502.1177
65.01 463.9007
65.04 507.007
65.07 492.6571
65.1 470.4974
65.13 482.9447
65.16 475.6176
65.19 507.1655
65.22 503.2771
65.25 493.4368
65.28 456.5232
65.31 482.8545
65.34 489.9129
65.37 444.6361
65.4 460.0164
65.43 493.4138
65.46 502.2303
65.49 471.7841
65.52 488.2222
65.55 454.5518
65.58 466.1909
65.61 530.571
65.64 479.9518
65.67 480.8413
65.7 503.0386
65.73 480.587
65.76 508.3063
65.79 520.1146
65.82 479.5046
65.85 498.6685
65.88 468.6807
65.91 515.9111
65.94 429.0878
65.97 471.6209
66 460.6463
66.03 486.6939
66.06 533.0057
66.09 458.5914
66.12 482.0643
66.15 465.8961
66.18 494.2885
66.21 497.1193
66.24 496.9372
66.27 456.5453
66.3 480.5634
66.33 472.7996
66.36 478.5976
66.39 473.6485
66.42 508.0325
66.45 478.3886
66.48 488.4688
66.51 506.9838
66.54 464.6316
66.57 444.6238
66.6 454.993
66.63 455.3642
66.66 478.5368
66.69 452.5804
66.72 471.2596
66.75 452.2028
66.78 471.7313
66.81 454.3905
66.84 494.399
66.87 477.1094
66.9 482.4852
66.93 421.3392
66.96 454.9433
66.99 471.0067
67.02 450.4384
67.05 456.3025
67.08 478.3272
67.11 449.9237
67.14 445.1167
67.17 498.3501
67.2 462.0882
67.23 476.6909
67.26 438.5963
67.29 474.765
67.32 457.2859
67.35 461.6112
67.38 472.8452
67.41 499.5744
67.44 471.4656
67.47 475.2738
67.5 472.703
67.53 459.2959
67.56 471.6183
67.59 463.2838
67.62 449.8202
67.65 433.7311
67.68 453.5999
67.71 482.9013
67.74 457.6434
67.77 469.623
67.8 486.6773
67.83 490.7878
67.86 449.9899
67.89 446.7731
67.92 460.1766
67.95 464.1855
67.98 447.4187
68.01 437.9366
68.04 481.0089
68.07 474.1529
68.1 473.0731
68.13 454.7421
68.16 510.5298
68.19 473.6573
68.22 431.2634
68.25 452.0148
68.28 439.6777
68.31 467.5394
68.34 453.3912
68.37 484.127
68.4 440.9311
68.43 439.2703
68.46 461.3585
68.49 442.5749
68.52 475.7174
68.55 454.3545
68.58 480.94
68.61 468.8036
68.64 441.9085
68.67 470.8596
68.7 484.3325
68.73 463.63
68.76 453.8201
68.79 430.5814
68.82 441.6939
68.85 439.3076
68.88 445.1817
68.91 487.4853
68.94 486.37
68.97 472.9889
69 392.9434
69.03 432.4995
69.06 447.7747
69.09 457.6558
69.12 464.1445
69.15 452.8018
69.18 464.9845
69.21 466.2621
69.24 472.4134
69.27 452.6791
69.3 455.4178
69.33 425.8906
69.36 426.3351
69.39 501.3556
69.42 469.3674
69.45 435.475
69.48 485.2777
69.51 457.2835
69.54 487.5564
69.57 446.2108
69.6 451.6158
69.63 478.0199
69.66 451.2469
69.69 435.7776
69.72 458.0571
69.75 448.5457
69.78 493.5225
69.81 445.582
69.84 438.2012
69.87 423.1362
69.9 469.6257
69.93 443.5217
69.96 457.9318
69.99 471.5592
70.02 450.6491
70.05 436.6369
70.08 472.6483
70.11 444.038
70.14 410.055
70.17 445.1991
70.2 407.7922
70.23 436.1277
70.26 480.2917
70.29 464.2434
70.32 442.6308
70.35 427.0732
70.38 455.4466
70.41 412.1687
70.44 412.7308
70.47 433.0293
70.5 444.3514
70.53 431.7232
70.56 478.9627
70.59 467.4207
70.62 423.6806
70.65 439.1807
70.68 455.5322
70.71 440.9803
70.74 415.1512
70.77 471.9917
70.8 472.2393
70.83 423.0209
70.86 424.7072
70.89 457.2152
70.92 453.5712
70.95 496.6094
70.98 443.9678
71.01 437.2096
71.04 408.3602
71.07 421.0102
71.1 434.5866
71.13 395.6808
71.16 436.4753
71.19 435.5054
71.22 475.6611
71.25 406.6584
71.28 456.5016
71.31 473.5775
71.34 453.5618
71.37 406.8148
71.4 426.7889
71.43 445.973
71.46 466.792
71.49 437.6353
71.52 415.724
71.55 427.3257
71.58 439.5636
71.61 414.5227
71.64 443.4613
71.67 436.5236
71.7 429.9226
71.73 430.7441
71.76 424.9044
71.79 399.6057
71.82 424.1625
71.85 476.1752
71.88 431.9968
71.91 431.8967
71.94 479.5101
71.97 418.7919
72 457.0186
72.03 420.0559
72.06 469.2506
72.09 439.9543
72.12 446.3909
72.15 438.5382
72.18 467.8578
72.21 454.3278
72.24 423.048
72.27 422.3548
72.3 454.4853
72.33 385.7888
72.36 437.4233
72.39 445.5648
72.42 477.6097
72.45 448.283
72.48 443.14
72.51 458.1334
72.54 448.5067
72.57 390.1961
72.6 432.2604
72.63 417.4581
72.66 465.2702
72.69 428.3535
72.72 438.0376
72.75 443.9404
72.78 450.5567
72.81 429.6537
72.84 440.2903
72.87 438.828
72.9 412.0441
72.93 451.3921
72.96 423.6248
72.99 466.9287
73.02 451.5732
73.05 487.556
73.08 403.4949
73.11 430.8738
73.14 454.1584
73.17 444.246
73.2 400.2402
73.23 450.9187
73.26 517.4741
73.29 449.2763
73.32 460.2084
73.35 401.7193
73.38 466.7861
73.41 452.5116
73.44 480.2586
73.47 472.4571
73.5 438.7441
73.53 442.2729
73.56 442.0172
73.59 427.5688
73.62 437.3927
73.65 455.8901
73.68 496.1781
73.71 454.7585
73.74 461.1913
73.77 411.7903
73.8 445.3384
73.83 454.2131
73.86 459.0272
73.89 469.4991
73.92 428.0361
73.95 485.5449
73.98 461.3043
74.01 475.7725
74.04 496.148
74.07 457.5526
74.1 467.4677
74.13 475.4784
74.16 498.7111
74.19 488.9156
74.22 492.2377
74.25 481.6359
74.28 474.2827
74.31 489.692
74.34 475.494
74.37 463.6545
74.4 475.1038
74.43 483.2162
74.46 486.1042
74.49 497.8355
74.52 512.3555
74.55 478.3187
74.58 489.2017
74.61 468.35
74.64 475.0356
74.67 479.9042
74.7 471.9617
74.73 544.985
74.76 483.9066
74.79 456.7493
74.82 466.7166
74.85 451.145
74.88 422.9237
74.91 438.8994
74.94 441.3415
74.97 459.7413
75 401.3973
75.03 438.5566
75.06 419.1591
75.09 416.3276
75.12 458.908
75.15 447.4744
75.18 437.3458
75.21 408.5242
75.24 407.8992
75.27 423.1796
75.3 402.8596
75.33 434.649
75.36 456.6084
75.39 408.8174
75.42 456.313
75.45 452.4348
75.48 410.7346
75.51 406.4085
75.54 389.601
75.57 418.3966
75.6 449.041
75.63 416.0383
75.66 405.1704
75.69 409.2528
75.72 418.1818
75.75 415.7976
75.78 422.1483
75.81 439.2261
75.84 430.3025
75.87 452.0965
75.9 446.9092
75.93 451.0786
75.96 438.0828
75.99 432.3908
76.02 451.3336
76.05 378.592
76.08 424.7815
76.11 451.4456
76.14 430.8414
76.17 431.6161
76.2 445.0846
76.23 416.3858
76.26 421.0262
76.29 396.7955
76.32 410.7202
76.35 420.3322
76.38 428.6726
76.41 408.2705
76.44 414.5934
76.47 373.9539
76.5 451.8825
76.53 468.92
76.56 441.2577
76.59 402.2873
76.62 404.9574
76.65 454.3693
76.68 428.5092
76.71 465.1919
76.74 466.1255
76.77 406.8708
76.8 429.1424
76.83 413.9962
76.86 443.8697
76.89 432.7205
76.92 394.4102
76.95 451.7073
76.98 427.2271
77.01 407.7242
77.04 421.037
77.07 400.1173
77.1 396.831
77.13 455.0385
77.16 419.7085
77.19 435.8683
77.22 410.212
77.25 401.8263
77.28 430.4449
77.31 402.8591
77.34 452.9711
77.37 443.3296
77.4 431.9697
77.43 455.1362
77.46 386.212
77.49 413.4391
77.52 415.4234
77.55 438.1744
77.58 401.8649
77.61 437.3622
77.64 467.3801
77.67 417.0843
77.7 401.5438
77.73 399.8689
77.76 396.9566
77.79 397.0407
77.82 448.3138
77.85 409.8391
77.88 403.5088
77.91 463.1143
77.94 410.5797
77.97 381.7003
78 402.4485
78.03 405.4646
78.06 420.496
78.09 421.6403
78.12 426.4579
78.15 401.9915
78.18 386.2599
78.21 403.6793
78.24 407.8232
78.27 443.0178
78.3 426.8214
78.33 404.3847
78.36 399.1186
78.39 445.7146
78.42 413.4985
78.45 384.2594
78.48 413.4571
78.51 391.8055
78.54 400.2003
78.57 407.7164
78.6 404.0616
78.63 428.8637
78.66 398.1021
78.69 389.0125
78.72 417.8732
78.75 409.1423
78.78 391.2811
78.81 411.0846
78.84 395.2136
78.87 433.2649
78.9 386.4209
78.93 415.8202
78.96 410.2161
78.99 429.0622
79.02 452.6038
79.05 373.618
79.08 420.8012
79.11 384.753
79.14 439.0114
79.17 437.6575
79.2 440.7501
79.23 410.0024
79.26 417.0099
79.29 426.9346
79.32 391.8363
79.35 373.6681
79.38 428.9798
79.41 411.0573
79.44 411.0667
79.47 395.4398
79.5 391.3435
79.53 383.9843
79.56 397.8358
79.59 401.0152
79.62 405.2292
79.65 372.1841
79.68 389.8257
79.71 398.1822
79.74 418.1214
79.77 433.4885
79.8 411.6343
79.83 357.6681
79.86 406.2156
79.89 397.9716
79.92 394.662
79.95 418.3528
79.98 395.9028
80.01 370.4898
80.04 386.6696
80.07 413.4803
80.1 375.8659
80.13 385.4216
80.16 399.5681
80.19 403.8235
80.22 407.6526
80.25 382.8429
80.28 408.948
80.31 458.4514
80.34 406.7709
80.37 395.3774
80.4 388.866
80.43 395.4219
80.46 419.7502
80.49 405.4938
80.52 391.4941
80.55 437.7187
80.58 391.4411
80.61 393.1212
80.64 430.991
80.67 390.4831
80.7 421.8767
80.73 403.5775
80.76 375.9506
80.79 418.0632
80.82 391.6972
80.85 400.6747
80.88 406.5029
80.91 425.8593
80.94 411.5246
80.97 402.5251
81 419.2179
81.03 382.6537
81.06 423.3457
81.09 367.1726
81.12 404.0958
81.15 390.5314
81.18 424.261
81.21 399.5091
81.24 426.1408
81.27 422.0498
81.3 392.3216
81.33 400.2683
81.36 365.4822
81.39 385.7651
81.42 382.6654
81.45 405.0229
81.48 395.1407
81.51 364.3943
81.54 413.5424
81.57 386.8521
81.6 385.0203
81.63 407.9985
81.66 406.7665
81.69 416.1392
81.72 443.9976
81.75 440.0981
81.78 381.0577
81.81 397.4154
81.84 349.6659
81.87 382.7255
81.9 420.9847
81.93 418.5035
81.96 411.7262
81.99 398.2
82.02 397.1738
82.05 444.5228
82.08 408.2559
82.11 385.4003
82.14 385.6969
82.17 393.6995
82.2 433.2509
82.23 378.5418
82.26 446.3452
82.29 429.322
82.32 421.2088
82.35 475.4097
82.38 403.8782
82.41 432.8788
82.44 390.1811
82.47 409.959
82.5 439.3118
82.53 433.4717
82.56 410.3285
82.59 402.3519
82.62 404.3959
82.65 427.9691
82.68 452.6054
82.71 425.5747
82.74 417.2296
82.77 406.5365
82.8 405.522
82.83 423.5301
82.86 412.0676
82.89 408.5575
82.92 457.4377
82.95 426.6851
82.98 459.7266
83.01 420.886
83.04 475.2211
83.07 451.2585
83.1 491.7907
83.13 459.3466
83.16 435.5325
83.19 448.2079
83.22 503.5385
83.25 456.4435
83.28 504.2365
83.31 526.0677
83.34 548.8997
83.37 584.9776
83.4 575.6144
83.43 558.3344
83.46 644.0174
83.49 662.89
83.52 629.7012
83.55 652.1688
83.58 704.2759
83.61 690.2231
83.64 751.8865
83.67 741.9406
83.7 731.3316
83.73 792.5586
83.76 823.4586
83.79 893.1611
83.82 893.8384
83.85 918.1976
83.88 909.4315
83.91 989.0648
83.94 1006.029
83.97 946.1127
84 1041.767
84.03 1004.948
84.06 936.867
84.09 875.0793
84.12 856.3304
84.15 774.3469
84.18 781.6509
84.21 713.1169
84.24 703.8558
84.27 713.1962
84.3 665.0731
84.33 612.6011
84.36 546.5707
84.39 514.944
84.42 524.8233
84.45 488.2559
84.48 541.3454
84.51 469.1473
84.54 479.7668
84.57 429.1089
84.6 467.9518
84.63 450.3648
84.66 446.0672
84.69 463.2393
84.72 418.6376
84.75 441.6579
84.78 400.462
84.81 423.2986
84.84 426.4607
84.87 405.8771
84.9 384.6254
84.93 374.3089
84.96 433.3632
84.99 408.8712
85.02 408.0677
85.05 432.0402
85.08 437.8643
85.11 390.1957
85.14 397.6722
85.17 408.8926
85.2 394.8659
85.23 382.853
85.26 369.7017
85.29 390.2861
85.32 407.16
85.35 377.1301
85.38 393.6671
85.41 403.6896
85.44 386.3532
85.47 392.6586
85.5 380.0887
85.53 419.4373
85.56 387.1153
85.59 390.5007
85.62 439.9667
85.65 413.3018
85.68 407.654
85.71 417.8558
85.74 422.7963
85.77 392.5323
85.8 386.1945
85.83 391.827
85.86 410.8197
85.89 390.7638
85.92 417.4791
85.95 404.2942
85.98 390.7754
86.01 416.8988
86.04 376.104
86.07 402.0472
86.1 409.5158
86.13 345.3905
86.16 416.671
86.19 395.6886
86.22 408.3083
86.25 369.6698
86.28 398.1295
86.31 408.0724
86.34 390.1558
86.37 386.0242
86.4 406.7779
86.43 388.5273
86.46 382.347
86.49 372.6161
86.52 393.3487
86.55 357.5966
86.58 383.1902
86.61 342.4714
86.64 398.9392
86.67 368.1107
86.7 390.4653
86.73 377.8282
86.76 409.5551
86.79 388.4418
86.82 345.4281
86.85 419.6096
86.88 376.5429
86.91 385.7665
86.94 381.5456
86.97 363.5396
87 391.0695
87.03 411.4215
87.06 385.824
87.09 373.2102
87.12 375.1821
87.15 354.746
87.18 406.5882
87.21 386.0918
87.24 365.2067
87.27 374.2045
87.3 369.1644
87.33 364.8012
87.36 360.4106
87.39 387.3138
87.42 364.3336
87.45 379.9001
87.48 386.4872
87.51 369.9933
87.54 366.2917
87.57 381.8068
87.6 383.739
87.63 398.9601
87.66 457.1016
87.69 394.1786
87.72 406.1563
87.75 425.8184
87.78 389.2573
87.81 393.5944
87.84 412.5635
87.87 375.7027
87.9 390.0131
87.93 407.5741
87.96 384.1443
87.99 370.5627
88.02 389.9124
88.05 391.0649
88.08 376.593
88.11 419.9151
88.14 395.1984
88.17 370.4617
88.2 379.8713
88.23 363.1509
88.26 353.9778
88.29 387.8292
88.32 374.6836
88.35 411.5316
88.38 368.5994
88.41 397.6397
88.44 470.7815
88.47 387.8628
88.5 420.3313
88.53 387.8304
88.56 393.1844
88.59 427.304
88.62 420.6616
88.65 419.4819
88.68 411.3434
88.71 428.9196
88.74 475.2928
88.77 519.3027
88.8 475.257
88.83 527.1183
88.86 517.7208
88.89 528.3128
88.92 464.3411
88.95 454.999
88.98 433.9913
89.01 425.3956
89.04 430.9907
89.07 478.7649
89.1 458.5044
89.13 439.8896
89.16 412.1431
89.19 425.8275
89.22 432.0068
89.25 434.0296
89.28 386.9878
89.31 379.7088
89.34 369.0591
89.37 412.2397
89.4 415.0992
89.43 408.0829
89.46 373.2542
89.49 390.754
89.52 391.6183
89.55 398.373
89.58 368.5254
89.61 397.6336
89.64 441.0694
89.67 356.7647
89.7 389.8444
89.73 408.5708
89.76 407.5738
89.79 374.9229
89.82 425.7448
89.85 393.3308
89.88 420.6225
89.91 381.69
89.94 390.7515
89.97 384.0333
90 393.9368
90.03 408.9651
90.06 385.1356
90.09 437.0857
90.12 361.1706
90.15 409.0159
90.18 413.9826
90.21 410.0623
90.24 426.1029
90.27 414.1462
90.3 437.383
90.33 460.8101
90.36 425.4321
90.39 455.9675
90.42 441.0632
90.45 472.7224
90.48 456.748
90.51 464.2054
90.54 463.5609
90.57 473.2449
90.6 452.2089
90.63 493.4481
90.66 502.649
90.69 516.8783
90.72 484.9392
90.75 542.8735
90.78 530.0497
90.81 546.2205
90.84 557.5482
90.87 571.5304
90.9 603.1749
90.93 559.5209
90.96 594.1121
90.99 603.3604
91.02 587.4146
91.05 608.7693
91.08 635.0468
91.11 622.5187
91.14 630.5366
91.17 664.684
91.2 686.5527
91.23 703.7323
91.26 683.8527
91.29 736.8138
91.32 794.1394
91.35 736.8801
91.38 781.5307
91.41 699.1062
91.44 650.4587
91.47 678.2474
91.5 624.1797
91.53 587.0111
91.56 652.3881
91.59 636.1824
91.62 566.6563
91.65 619.3724
91.68 614.9965
91.71 533.7665
91.74 451.7873
91.77 435.6631
91.8 454.6891
91.83 477.6688
91.86 456.2004
91.89 458.1584
91.92 448.2522
91.95 429.3409
91.98 457.6556
92.01 458.9774
92.04 511.1833
92.07 487.9073
92.1 471.0366
92.13 449.928
92.16 486.1776
92.19 512.983
92.22 513.0605
92.25 518.3068
92.28 504.0777
92.31 530.726
92.34 560.5376
92.37 577.0577
92.4 587.3395
92.43 572.1389
92.46 599.1307
92.49 652.4288
92.52 611.6472
92.55 634.1922
92.58 626.5504
92.61 671.8793
92.64 717.8492
92.67 677.329
92.7 677.4285
92.73 620.5538
92.76 704.1112
92.79 740.1176
92.82 752.6509
92.85 738.0649
92.88 758.3754
92.91 762.9984
92.94 735.7227
92.97 704.7914
93 655.6586
93.03 643.4489
93.06 654.6171
93.09 610.4219
93.12 631.2866
93.15 598.4639
93.18 565.258
93.21 537.5435
93.24 528.9881
93.27 504.804
93.3 551.7789
93.33 445.5461
93.36 461.1213
93.39 471.974
93.42 466.8322
93.45 449.7047
93.48 415.563
93.51 397.7297
93.54 404.9648
93.57 386.6568
93.6 398.9173
93.63 385.475
93.66 391.5312
93.69 403.1004
93.72 397.2434
93.75 395.9828
93.78 360.7054
93.81 387.9398
93.84 397.5939
93.87 420.3684
93.9 390.2257
93.93 357.9654
93.96 404.8798
93.99 387.2076
94.02 381.791
94.05 393.9184
94.08 371.595
94.11 390.3536
94.14 369.9753
94.17 366.2812
94.2 350.9449
94.23 394.8909
94.26 396.5485
94.29 382.0587
94.32 375.6062
94.35 383.7981
94.38 398.8606
94.41 370.9843
94.44 360.2665
94.47 431.6389
94.5 386.8263
94.53 389.8999
94.56 378.3594
94.59 364.7762
94.62 394.9137
94.65 368.9001
94.68 378.3082
94.71 380.5117
94.74 383.0763
94.77 362.3661
94.8 368.6528
94.83 389.8987
94.86 380.9116
94.89 391.6852
94.92 388.1718
94.95 357.4183
94.98 363.7522
