'Id: "" Comment: "" Operator: "Administrator" Anode: "Cu" Scantype: "Locked Coupled" TimePerStep: "472.502" 
20.2999992370605 27.0851759509415
20.3297345377505 27.2011542942592
20.3594698384404 27.0673982486811
20.3892051391304 27.2324769125275
20.4189404398203 27.0043297335193
20.4486757405102 27.4254919656402
20.4784110412002 27.6146975111257
20.5081463418901 27.6485598011455
20.53788164258 27.6891945491692
20.56761694327 27.3797778741135
20.5973522439599 27.688771270544
20.6270875446498 27.7408345414494
20.6568228453398 27.7628450299622
20.6865581460297 27.8483473122621
20.7162934467196 28.103161044661
20.7460287474096 28.0113095829823
20.7757640480995 28.0015741746016
20.8054993487895 28.1992452925921
20.8352346494794 28.0083466326056
20.8649699501693 28.1196689110456
20.8947052508593 28.3448531396771
20.9244405515492 28.276282002387
20.9541758522391 28.4036888685864
20.9839111529291 28.6034763797031
21.013646453619 28.5395613072908
21.0433817543089 28.6089790018313
21.0731170549989 28.803687169445
21.1028523556888 28.9107766616326
21.1325876563787 28.764322257297
21.1623229570687 28.8049570053208
21.1920582577586 29.177018916913
21.2217935584486 28.8680255204826
21.2515288591385 29.0102471385656
21.2812641598284 29.1109874513745
21.3109994605184 28.962839932538
21.3407347612083 29.0982890926171
21.3704700618982 29.3509864318896
21.4002053625882 29.3429441380099
21.4299406632781 29.1986061268006
21.459675963968 29.3416743021342
21.489411264658 29.5067529659806
21.5191465653479 29.712889656476
21.5488818660378 29.4525733019489
21.5786171667278 29.516065095736
21.6083524674177 29.7518312899987
21.6380877681077 29.7751116143873
21.6678230687976 29.7996617746516
21.6975583694875 29.8187093127878
21.7272936701775 29.8847407783263
21.7570289708674 29.7615666983794
21.7867642715573 30.1408243466009
21.8164995722473 30.0527823925494
21.8462348729372 30.117120743587
21.8759701736271 30.2013531900112
21.9057054743171 29.9744758468787
21.935440775007 30.2631518692973
21.9651760756969 30.2762735066799
21.9949113763869 30.4303469262699
22.0246466770768 30.459553151412
22.0543819777668 30.4041036515046
22.0841172784567 30.5933091969901
22.1138525791466 30.348230872972
22.1435878798366 30.4206115178892
22.1733231805265 30.5704521512267
22.2030584812164 30.4155321743863
22.2327937819064 30.4874895406783
22.2625290825963 30.683890822793
22.2922643832862 30.8142606393691
22.3219996839762 30.7287583570692
22.3517349846661 30.6699226281598
22.381470285356 30.9061121010477
22.411205586046 30.8341547347557
22.4409408867359 30.8273822767518
22.4706761874259 30.9615616009551
22.5004114881158 30.8921439064146
22.5301467888057 31.1169048564208
22.5598820894957 30.9302389826868
22.5896173901856 30.9916143833477
22.6193526908755 31.062301913764
22.6490879915655 31.0610320778882
22.6788232922554 31.2345763142396
22.7085585929453 31.130873051054
22.7382938936353 31.4411362833602
22.7680291943252 31.3056871232811
22.7977644950151 31.3560572796855
22.8274997957051 31.2201848409811
22.857235096395 31.7205001760233
22.886970397085 31.4496018558651
22.9167056977749 31.3657926880662
22.9464409984648 31.5190195504057
22.9761762991548 31.422088745224
23.0059115998447 31.3306605621707
23.0356469005346 31.3852635048275
23.0653822012246 31.2722481118866
23.0951175019145 31.322618268291
23.1248528026044 31.2146822188529
23.1545881032944 31.2934120431489
23.1843234039843 31.2345763142396
23.2140587046742 31.5152100427784
23.2437940053642 31.2117192684762
23.2735293060541 31.4584907069953
23.3032646067441 31.2654756538826
23.332999907434 31.2400789363678
23.3627352081239 31.2967982721509
23.3924705088139 31.4754218520052
23.4222058095038 31.3522477720583
23.4519411101937 31.2083330394742
23.4816764108837 31.2637825393816
23.5114117115736 31.5782785579403
23.5411470122635 31.4347871039815
23.5708823129535 31.2874861423954
23.6006176136434 31.5947864243249
23.6303529143333 31.2680153256341
23.6600882150233 31.2845231920187
23.6898235157132 31.1901320585886
23.7195588164032 31.3442054781786
23.7492941170931 31.3594435086875
23.779029417783 31.2658989325078
23.808764718473 31.2337297569891
23.8385000191629 31.322618268291
23.8682353198528 31.5892838021967
23.8979706205428 31.3387028560504
23.9277059212327 31.314152695786
23.9574412219226 31.3746815391964
23.9871765226126 31.4009248139617
24.0169118233025 31.2176451692297
24.0466471239924 31.2887559782712
24.0763824246824 31.1981743524683
24.1061177253723 31.1897087799634
24.1358530260623 31.3920359628315
24.1655883267522 31.2896025355217
24.1953236274421 31.1973277952178
24.2250589281321 31.2476979516222
24.254794228822 31.2443117226202
24.2845295295119 31.1118255129179
24.3142648302019 31.1660051769495
24.3440001308918 31.0140481504858
24.3737354315817 31.4953159473918
24.4034707322717 31.2151054974782
24.4332060329616 30.9738366810873
24.4629413336515 31.0648415855154
24.4926766343415 31.1351058373065
24.5224119350314 31.3645228521904
24.5521472357214 31.0733071580204
24.5818825364113 31.0500268336318
24.6116178371012 31.0665347000164
24.6413531377912 31.1042064976634
24.6710884384811 31.2358461501153
24.700823739171 31.1427248525609
24.730559039861 31.0479104405055
24.7602943405509 31.1909786158391
24.7900296412408 31.3526710506835
24.8197649419308 31.4821943100091
24.8495002426207 31.7569021377946
24.8792355433106 31.8309758972128
24.9089708440006 32.2699158315941
24.9387061446905 32.180604041667
24.9684414453804 31.9566896489112
24.9981767460704 31.7205001760233
25.0279120467603 31.4457923482379
25.0576473474503 31.1355291159317
25.0873826481402 31.1092858411664
25.1171179488301 31.0525665053833
25.1468532495201 30.7706629409686
25.17658855021 30.7465360593296
25.2063238508999 30.9581753719531
25.2360591515899 30.8548953873928
25.2657944522798 30.7325678646964
25.2955297529697 30.6369068953905
25.3252650536597 30.9052655437972
25.3550003543496 30.5806108382327
25.3847356550395 30.6703459067851
25.4144709557295 30.6195524717554
25.4442062564194 30.2792364570567
25.4739415571094 30.5442088764614
25.5036768577993 30.7351075364479
25.5334121584892 30.4320400407709
25.5631474591792 30.4900292124298
25.5928827598691 30.5361665825817
25.622618060559 30.4548970865343
25.652353361249 30.6893934449212
25.6820886619389 30.1518295908573
25.7118239626288 30.5061138001892
25.7415592633188 30.5010344566862
25.7712945640087 30.3880190637452
25.8010298646986 30.2576492471691
25.8307651653886 30.2419879380349
25.8605004660785 30.2733105563032
25.8902357667685 30.4176485675125
25.9199710674584 30.3245272699581
25.9497063681483 30.1306656595949
25.9794416688383 30.3710879187353
26.0091769695282 30.2851623578101
26.0389122702181 30.0223063315316
26.0686475709081 30.2254800716503
26.098382871598 30.156485655735
26.1281181722879 30.3507705447234
26.1578534729779 30.0764859955633
26.1875887736678 29.9224125759733
26.2173240743577 29.9960630567663
26.2470593750477 30.2614587547963
26.2767946757376 29.9490791293639
26.3065299764276 30.012570923151
26.3362652771175 30.0608246864291
26.3660005778074 29.9423066713599
26.3957358784974 30.305479731822
26.4254711791873 29.9084443813402
26.4552064798772 30.0354279689143
26.4849417805672 29.9808250262574
26.5146770812571 29.9465394576124
26.544412381947 29.8089739044071
26.574147682637 29.8872804500778
26.6038829833269 29.860190618062
26.6336182840168 29.9964863353916
26.6633535847068 29.897862415709
26.6930888853967 29.9926768277643
26.7228241860867 29.8132066906595
26.7525594867766 29.928761755352
26.7822947874665 29.6963817900913
26.8120300881565 29.6180752444206
26.8417653888464 29.7200853931052
26.8715006895363 29.5664352521404
26.9012359902263 29.4127851111757
26.9309712909162 29.1025218788695
26.9607065916061 29.2426271038263
26.9904418922961 29.3315156151283
27.020177192986 29.2760661152209
27.0499124936759 29.2278123519427
27.0796477943659 29.2201933366882
27.1093830950558 29.2515159549565
27.1391183957458 29.3116215197416
27.1688536964357 28.9539510814078
27.1985889971256 29.2396641534496
27.2283242978156 29.2223097298145
27.2580595985055 28.9666494401652
27.2877948991954 28.9776546844216
27.3175301998854 29.0601940163448
27.3472655005753 29.0838976193587
27.3770008012652 28.8582901121019
27.4067361019552 28.6280265399674
27.4364714026451 28.8862265013682
27.466206703335 28.8341632304628
27.495942004025 28.6458042422278
27.5256773047149 29.0250618904493
27.5554126054049 28.8113061846995
27.5851479060948 28.6466507994783
27.6148832067847 28.7012537421352
27.6446185074747 28.6987140703837
27.6743538081646 28.5035826241448
27.7040891088545 28.767708486299
27.7338244095445 28.7389255397822
27.7635597102344 28.5247465554071
27.7932950109243 28.3440065824266
27.8230303116143 28.5983970362001
27.8527656123042 28.4832652501329
27.8825009129941 28.3330013381702
27.9122362136841 28.5526829446735
27.941971514374 28.43543476548
27.971706815064 28.4100380479652
28.0014421157539 28.1840072620832
28.0311774164438 28.2551180711247
28.0609127171338 28.3037951130281
28.0906480178237 28.166652838448
28.1203833185136 28.2839010176415
28.1501186192036 28.2182928307282
28.1798539198935 28.3749059220696
28.2095892205834 28.5044291813953
28.2393245212734 28.4553288608666
28.2690598219633 28.3588213343102
28.2987951226532 28.4794557425057
28.3285304233432 28.5509898301725
28.3582657240331 28.5852753988175
28.3880010247231 28.6834760398748
28.417736325413 28.8341632304628
28.4474716261029 28.5285560630344
28.4772069267929 28.1446423499352
28.5069422274828 28.1895098842114
28.5366775281727 27.8944846824141
28.5664128288627 28.0138492547338
28.5961481295526 27.5114175265654
28.6258834302425 27.8030564993607
28.6556187309325 27.9960715524734
28.6853540316224 27.8436912473844
28.7150893323123 27.8356489535047
28.7448246330023 27.7636915872127
28.7745599336922 27.5537453890901
28.8042952343822 27.6028457096188
28.8340305350721 27.4741690075436
28.863765835762 27.7552260147078
28.893501136452 27.5981896447411
28.9232364371419 27.8851725526587
28.9529717378318 28.1454889071857
28.9827070385218 27.9567066403254
29.0124423392117 28.2851708535172
29.0421776399016 28.6894019406283
29.0719129405916 29.262521199213
29.1016482412815 29.7391329312413
29.1313835419714 30.120506972589
29.1611188426614 30.8239960477498
29.1908541433513 31.1558464899436
29.2205894440413 31.7031457523882
29.2503247447312 31.9770070229231
29.2800600454211 32.0057899694399
29.3097953461111 31.5753156075635
29.339530646801 30.3126754684512
29.3692659474909 29.5202978819885
29.3990012481809 28.8502478182222
29.4287365488708 28.1205154682961
29.4584718495607 27.752263064331
29.4882071502507 27.382317545865
29.5179424509406 27.4851742518001
29.5476777516305 27.1668687256142
29.5774130523205 26.9099386000892
29.6071483530104 26.973007115251
29.6368836537004 26.9167110580931
29.6666189543903 26.7998861575249
29.6963542550802 26.707611417221
29.7260895557702 26.6077176616627
29.7558248564601 26.5480353755028
29.78556015715 26.7173468256017
29.81529545784 26.4646494863291
29.8450307585299 26.4202052306782
29.8747660592198 26.627188478424
29.9045013599098 26.490046203844
29.9342366605997 26.3334331125025
29.9639719612896 26.3871894979089
29.9937072619796 26.4070835932955
30.0234425626695 26.3821101544059
30.0531778633595 26.2250737844392
30.0829131640494 26.3956550704138
30.1126484647393 26.2094124753051
30.1423837654293 26.0934341319874
30.1721190661192 26.1107885556225
30.2018543668091 26.2411583721986
30.2315896674991 26.111635112873
30.261324968189 26.1874019867922
30.2910602688789 25.9740695596677
30.3207955695689 26.1857088722912
30.3505308702588 26.1141747846245
30.3802661709487 25.8813715407385
30.4100014716387 25.9465564490266
30.4397367723286 26.0439105328334
30.4694720730186 25.7869804073084
30.4992073737085 25.4860293047577
30.5289426743984 25.700631567758
30.5586779750884 25.7230653348961
30.5884132757783 25.7171394341426
30.6181485764682 25.6993617318822
30.6478838771582 25.4877224192587
30.6776191778481 25.5732247015586
30.707354478538 25.4085693163374
30.737089779228 25.2781994997613
30.7668250799179 25.3641250606865
30.7965603806078 25.6138594495823
30.8262956812978 25.3425378507989
30.8560309819877 25.3586224385583
30.8857662826777 25.4991509421403
30.9155015833676 25.2235965571044
30.9452368840575 25.2223267212287
30.9749721847475 25.2062421334693
31.0047074854374 25.2307922937336
31.0344427861273 25.176612629702
31.0641780868173 24.9607405308259
31.0939133875072 25.0513221566288
31.1236486881971 24.9467723361928
31.1533839888871 24.9006349660408
31.183119289577 24.8100533402379
31.2128545902669 25.063597236761
31.2425898909569 24.7867730158493
31.2723251916468 24.8638097256443
31.3020604923368 24.8185189127429
31.3317957930267 24.7774608860939
31.3615310937166 24.6847628671648
31.3912663944066 24.7148156495573
31.4210016950965 24.6043399283678
31.4507369957864 24.5852923902317
31.4804722964764 24.4735468331664
31.5102075971663 24.3071983334443
31.5399428978562 24.5675146879713
31.5696781985462 24.6255038596302
31.5994134992361 24.2991560395646
31.629148799926 24.243283261032
31.658884100616 24.0887865628167
31.6886194013059 24.2318547381503
31.7183547019959 24.1979924481305
31.7480900026858 24.1967226122548
31.7778253033757 24.0710088605564
31.8075606040657 24.0227550972782
31.8372959047556 23.9732314981243
31.8670312054455 24.0379931277871
31.8967665061355 23.9960885438876
31.9265018068254 23.9910092003846
31.9562371075153 24.0307973911579
31.9859724082053 24.0765114826846
32.0157077088952 23.8208511930353
32.0454430095851 23.782756116763
32.0751783102751 23.5795823766444
32.104913610965 23.6350318765518
32.1346489116549 23.8200046357848
32.1643842123449 23.4877309149658
32.1941195130348 23.5046620599756
32.2238548137248 23.7328092389839
32.2535901144147 23.5804289338949
32.2833254151046 23.5143974683563
32.3130607157946 23.5237095981118
32.3427960164845 23.2752450450917
32.3725313171744 23.3586309342654
32.4022666178644 22.9814896791701
32.4320019185543 23.2185257093085
32.4617372192442 23.2807476672199
32.4914725199342 23.1258276903794
32.5212078206241 22.8333421603336
32.550943121314 23.0640290110933
32.580678422004 23.0242408203201
32.6104137226939 22.7685805306708
32.6401490233839 22.9074159197519
32.6698843240738 22.7977867558129
32.6996196247637 22.9620188624088
32.7293549254537 22.7410674200297
32.7590902261436 22.8244533092034
32.7888255268335 22.7952470840614
32.8185608275235 22.7850883970554
32.8482961282134 22.7711202024223
32.8780314289033 22.7855116756807
32.9077667295933 22.5552481035462
32.9375020302832 22.4625500846171
32.9672373309731 22.4324973022245
32.9969726316631 22.4329205808498
33.026707932353 22.4684759853706
33.056443233043 22.3453019054236
33.0861785337329 22.1912284858337
33.1159138344228 22.3567304283053
33.1456491351128 22.2796937185103
33.1753844358027 22.1941914362104
33.2051197364926 22.2377891346108
33.2348550371826 22.2348261842341
33.2645903378725 21.9334518030581
33.2943256385624 22.0193773639833
33.3240609392524 21.9804357304606
33.3537962399423 22.0363085089932
33.3835315406322 22.0202239212338
33.4132668413222 21.7171564255568
33.4430021420121 21.8911239405334
33.4727374427021 21.796309528478
33.502472743392 21.7459393720736
33.5322080440819 21.8128173948627
33.5619433447719 21.7781085475924
33.5916786454618 21.6494318455173
33.6214139461517 21.6892200362905
33.6511492468417 21.7010718377974
33.6808845475316 21.5237180938189
33.7106198482215 21.5012843266808
33.7403551489115 21.621495456251
33.7700904496014 21.5008610480555
33.7998257502913 21.4784272809174
33.8295610509813 21.3480574643413
33.8592963516712 21.2278463347711
33.8890316523612 21.35440664372
33.9187669530511 21.3658351666017
33.948502253741 21.2735604262978
33.978237554431 21.2765233766745
34.0079728551209 21.3036132086903
34.0377081558108 21.1558889684791
34.0674434565008 21.1173706135816
34.0971787571907 21.1457302814731
34.1269140578806 21.0822384876861
34.1566493585706 21.1910210943746
34.1863846592605 21.0543020984197
34.2161199599504 20.9112339230862
34.2458552606404 21.1537725753528
34.2755905613303 21.047952919041
34.3053258620203 20.9268952322203
34.3350611627102 21.04625980454
34.3647964634001 21.2083755180097
34.3945317640901 21.128375857838
34.42426706478 21.085624716688
34.4540023654699 21.2159945332642
34.4837376661599 21.1457302814731
34.5134729668498 21.4064699146254
34.5432082675397 21.5910193952332
34.5729435682297 21.7057279026751
34.6026788689196 22.0557793257546
34.6324141696095 22.2428684781138
34.6621494702995 22.6437133362229
34.6918847709894 23.1685788315294
34.7216200716794 23.8864593799486
34.7513553723693 24.6348159893856
34.7810906730592 25.6837004227481
34.8108259737492 26.3609462231436
34.8405612744391 27.2273975690245
34.870296575129 28.2195626666039
34.900031875819 28.3414669106751
34.9297671765089 28.1801977544559
34.9595024771988 28.1099335026649
34.9892377778888 27.1901490500028
35.0189730785787 26.4938557114712
35.0487083792686 25.656187312107
35.0784436799586 24.8096300616127
35.1081789806485 24.0003213301401
35.1379142813385 23.1880496482908
35.1676495820284 22.4646664777433
35.1973848827183 21.8864678756557
35.2271201834083 21.284142391929
35.2568554840982 20.9044614650822
35.2865907847881 20.7711286981294
35.3163260854781 20.4523998933183
35.346061386168 20.1941999319175
35.3757966868579 20.263617626458
35.4055319875479 20.123089122876
35.4352672882378 19.6672180434847
35.4650025889277 19.7967413028104
35.4947378896177 19.5795993680586
35.5244731903076 19.5630915016739
35.5542084909976 19.6346255893407
35.5839437916875 19.6993872190035
35.6136790923774 19.4386475858513
35.6434143930674 19.4970600361354
35.6731496937573 19.5021393796384
35.7028849944472 19.6193875588318
35.7326202951372 19.5978003489442
35.7623555958271 19.398859395078
35.792090896517 19.4864780705042
35.821826197207 19.4919806926324
35.8515614978969 19.3167433417801
35.8812967985868 19.3726161203127
35.9110320992768 19.2989656395197
35.9407673999667 19.2007649984624
35.9705027006567 19.0424587926199
36.0002380013466 18.8794965218998
36.0299733020365 18.953570281318
36.0597086027265 18.8862689799037
36.0894439034164 18.771983751087
36.1191792041063 18.506588053057
36.1489145047963 18.4515618317749
36.1786498054862 18.4926198584238
36.2083851061761 18.5387572285758
36.2381204068661 18.3317739808299
36.267855707556 18.3432025037116
36.2975910082459 18.2060602291315
36.3273263089359 18.1180182750801
36.3570616096258 18.438016915767
36.3867969103158 18.237806126025
36.4165322110057 18.167541874234
36.4462675116956 18.3178057861968
36.4760028123856 18.0803464774331
36.5057381130755 18.02362714165
36.5354734137654 18.133256305589
36.5652087144554 18.1561133513523
36.5949440151453 18.1942084276246
36.6246793158352 17.9770664928728
36.6544146165252 18.0121986187683
36.6841499172151 17.9834156722515
36.713885217905 17.8809822449417
36.743620518595 17.979182885999
36.7733558192849 18.0502936950405
36.8030911199749 17.790823897764
36.8328264206648 17.8466966762966
36.8625617213547 18.0126218973935
36.8922970220447 17.7853212756358
36.9220323227346 17.8039455351467
36.9517676234245 17.8974901113263
36.9815029241145 17.8018291420204
37.0112382248044 17.8348448747897
37.0409735254943 18.0430979584113
37.0707088261843 17.7260622681012
37.1004441268742 17.8416173327937
37.1301794275641 17.8217232374071
37.1599147282541 17.6850042414522
37.189650028944 17.7175966955963
37.219385329634 17.8073317641487
37.2491206303239 17.8936806036991
37.2788559310138 17.6143167110359
37.3085912317038 17.6968560429591
37.3383265323937 17.7895540618883
37.3680618330836 17.7967497985175
37.3977971337736 17.6346340850478
37.4275324344635 17.7802419321328
37.4572677351534 17.8255327450343
37.4870030358434 17.8242629091585
37.5167383365333 17.9144212563362
37.5464736372232 17.8814055235669
37.5762089379132 18.0947379506915
37.6059442386031 18.1408753208434
37.6356795392931 18.350821518966
37.665414839983 18.5150536255619
37.6951501406729 18.6306086902544
37.7248854413629 18.8579093120121
37.7546207420528 19.4712400399953
37.7843560427427 19.8441485088381
37.8140913434327 20.2022422257972
37.8438266441226 20.8583240949303
37.8735619448125 21.7137701965548
37.9032972455025 22.6221261263353
37.9330325461924 23.748470548118
37.9627678468823 25.1173536221674
37.9925031475723 26.7727963255091
38.0222384482622 28.8011474976935
38.0519737489522 30.7947898226077
38.0817090496421 32.5797557852751
38.111444350332 34.5293771331636
38.141179651022 36.1581532831147
38.1709149517119 37.8449186047247
38.2006502524018 38.6343332408107
38.2303855530918 39.8300953571339
38.2601208537817 40.0789831887793
38.2898561544716 40.5031083712769
38.3195914551616 40.5505155773046
38.3493267558515 40.1843795664658
38.3790620565414 39.6188793231356
38.4087973572314 37.4085183420949
38.4385326579213 34.6969954687614
38.4682679586113 32.3202859879986
38.4980032593012 29.8352171791724
38.5277385599911 27.6439037362678
38.5574738606811 25.6845469799986
38.587209161371 24.2043416275092
38.6169444620609 22.9319660800162
38.6466797627509 22.1412816080545
38.6764150634408 21.4060466360001
38.7061503641307 21.0259424305282
38.7358856648207 20.7664726332517
38.7656209655106 20.7114464119695
38.7953562662005 20.3245697484936
38.8250915668905 20.2090146838011
38.8548268675804 20.2543054967026
38.8845621682704 19.8940953866172
38.9142974689603 20.1793851800338
38.9440327696502 20.1103907641185
38.9737680703402 20.0274281535701
39.0035033710301 19.8314501500807
39.03323867172 19.823407856201
39.06297397241 19.7273236082698
39.0927092730999 19.6790698449917
39.1224445737898 19.4263725057191
39.1521798744798 19.5245731467765
39.1819151751697 19.6066892000744
39.2116504758596 19.6744137801139
39.2413857765496 19.6909216464986
39.2711210772395 19.8204449058242
39.3008563779294 20.0595973290889
39.3305916786194 19.9355766918915
39.3603269793093 20.0888035542309
39.3900622799993 20.231025172314
39.4197975806892 20.7012877249636
39.4495328813791 20.9679532588693
39.4792681820691 21.4665754794105
39.509003482759 22.17641373395
39.5387387834489 22.9345057517677
39.5684740841389 23.9258242920966
39.5982093848288 24.8384130081295
39.6279446855187 26.4595701428262
39.6576799862087 28.3160701931603
39.6874152868986 30.163258113739
39.7171505875885 33.0034576891475
39.7468858882785 36.0138152719054
39.7766211889684 39.936338292071
39.8063564896584 43.8292318084692
39.8360917903483 48.9915379219838
39.8658270910382 53.375857922294
39.8955623917282 57.6082208961405
39.9252976924181 61.1214334856921
39.955032993108 63.1133826961053
39.984768293798 63.5243862412203
40.0145035944879 62.602485395432
40.0442388951778 60.2261991932943
40.0739741958678 56.5360561383894
40.1037094965577 52.1843285922232
40.1334447972476 47.3589522644054
40.1631800979376 42.672834604294
40.1929153986275 38.0899969287428
40.2226506993175 34.2157276718554
40.2523860000074 30.4828334758006
40.2821213006973 27.4377670457724
40.3118566013873 25.3962942362053
40.3415919020772 23.3886837166579
40.3713272027671 22.1946147148356
40.4010625034571 20.9281650680961
40.430797804147 20.1971628822942
40.4605331048369 19.2325108953559
40.4902684055269 18.6788624535326
40.5200037062168 18.283943496177
40.5497390069067 18.098970736944
40.5794743075967 17.6553747376849
40.6092096082866 17.4759046005801
40.6389449089766 17.0873348226032
40.6686802096665 16.8803515748573
40.6984155103564 16.9611977922796
40.7281508110464 16.6699820981095
40.7578861117363 16.5535804761665
40.7876214124262 16.4206709878389
40.8173567131162 16.223846427099
40.8470920138061 16.0951697250238
40.876827314496 16.0879739883946
40.906562615186 16.0503021907476
40.9362979158759 15.915699587919
40.9660332165658 15.8610966452621
40.9957685172558 15.838662878124
41.0255038179457 15.6088225846148
41.0552391186357 15.7823668209662
41.0849744193256 15.8246946834909
41.1147097200155 15.6845894585341
41.1444450207055 15.5300927603189
41.1741803213954 15.547447183954
41.2039156220853 15.4780294894135
41.2336509227753 15.538981611449
41.2633862234652 15.393373764364
41.2931215241551 15.3315750850779
41.3228568248451 15.3878711422358
41.352592125535 15.2727393561686
41.3823274262249 15.3713632758512
41.4120627269149 15.3353845927052
41.4417980276048 15.0314705397777
41.4715333282948 15.2608875546617
41.5012686289847 15.2210993638884
41.5310039296746 15.100464955693
41.5607392303646 15.1457557685944
41.5904745310545 15.1512583907226
41.6202098317444 15.2092475623815
41.6499451324344 15.0873433183103
41.6796804331243 14.951470879606
41.7094157338142 14.9243810475901
41.7391510345042 15.0352800474049
41.7688863351941 15.0407826695331
41.798621635884 15.1902000242454
41.828356936574 15.0513646351643
41.8580922372639 14.9294603910931
41.8878275379539 14.8913653148209
41.9175628386438 14.9256508834659
41.9472981393337 14.9565502231089
41.9770334400237 14.8130587691501
42.0067687407136 14.8892489216946
42.0365040414035 14.9523174368565
42.0662393420935 14.8325295859115
42.0959746427834 14.9548571086079
42.1257099434733 14.7863922157596
42.1554452441633 14.7017364907101
42.1851805448532 14.7758102501284
42.2149158455431 14.7830059867576
42.2446511462331 14.7262866509745
42.274386446923 14.6712604296923
42.304121747613 14.8075561470219
42.3338570483029 14.7368686166057
42.3635923489928 14.6716837083176
42.3933276496828 14.7055459983374
42.4230629503727 14.8388787652902
42.4527982510626 14.615810929785
42.4825335517526 14.689461410578
42.5122688524425 14.5844883115167
42.5420041531324 14.6920010823295
42.5717394538224 14.5133775024751
42.6014747545123 14.6509430556805
42.6312100552022 14.6348584679211
42.6609453558922 14.7347522234794
42.6906806565821 14.5959168343983
42.7204159572721 14.5383509413647
42.750151257962 14.605652242779
42.7798865586519 14.6429007618008
42.8096218593419 14.6361283037968
42.8393571600318 14.6674509220651
42.8690924607217 14.6767630518206
42.8988277614117 14.792318116513
42.9285630621016 14.6687207579409
42.9582983627915 14.9315767842194
42.9880336634815 14.8922118720714
43.0177689641714 14.8164449981521
43.0475042648613 14.7986672958917
43.0772395655513 14.680995838073
43.1069748662412 14.8177148340279
43.1367101669312 14.4735893117019
43.1664454676211 14.574752903136
43.196180768311 14.4718961972009
43.225916069001 14.4045948957866
43.2556513696909 14.422372598047
43.2853866703808 14.1933788617883
43.3151219710708 14.2627965563288
43.3448572717607 14.3499919531297
43.3745925724506 14.1874529610348
43.4043278731406 14.0985644497329
43.4340631738305 14.0820565833483
43.4637984745204 14.1527441137646
43.4935337752104 14.0304165910681
43.5232690759003 14.0304165910681
43.5530043765903 14.1743313236522
43.5827396772802 14.0735910108433
43.6124749779701 13.9262900492573
43.6422102786601 14.2924260600961
43.67194557935 13.9512634881469
43.7016808800399 14.0054431521785
43.7314161807299 14.0536969154567
43.7611514814198 13.9584592247761
43.7908867821097 13.9267133278826
43.8206220827997 13.970311026283
43.8503573834896 13.8407877669574
43.8800926841795 13.9643851255296
43.9098279848695 14.0435382284508
43.9395632855594 14.0943316634804
43.9692985862494 13.9453375873934
43.9990338869393 13.8475602249613
44.0287691876292 13.8788828432296
44.0585044883192 13.5694661681739
44.0882397890091 13.6718995954838
44.117975089699 13.7925340036792
44.147710390389 13.677402217612
44.1774456910789 13.7176136870105
44.2071809917688 13.8166608853183
44.2369162924588 13.790417610553
44.2666515931487 13.8636448127207
44.2963868938386 13.667243530606
44.3261221945286 13.7239628663892
44.3558574952185 13.751052698405
44.3855927959085 13.5639635460457
44.4153280965984 13.6481959924699
44.4450633972883 13.677402217612
44.4747986979783 13.7370845037718
44.5045339986682 13.4348635653453
44.5342692993581 13.5516884659136
44.5640046000481 13.6164500955764
44.593739900738 13.6617409084778
44.6234752014279 13.4611068401107
44.6532105021179 13.4141229127082
44.6829458028078 13.5326409277774
44.7126811034977 13.6812117252392
44.7424164041877 13.5330642064027
44.7721517048776 13.4484084813532
44.8018870055676 13.4649163477379
44.8316223062575 13.5229055193968
44.8613576069474 13.5863973131838
44.8910929076374 13.3616363631776
44.9208282083273 13.3701019356825
44.9505635090172 13.4488317599785
44.9802988097072 13.5288314201502
45.0100341103971 13.3887261951934
45.039769411087 13.3950753745721
45.069504711777 13.4814242141225
45.0992400124669 13.5106304392646
45.1289753131568 13.192748191704
45.1587106138468 13.3087265350217
45.1884459145367 13.3844934089409
45.2181812152267 13.1220606612877
45.2479165159166 13.2266104817237
45.2776518166065 13.2909488327613
45.3073871172965 13.2896789968856
45.3371224179864 13.1512668864297
45.3668577186763 13.40862029058
45.3965930193663 13.1919016344535
45.4263283200562 13.2312665466014
45.4560636207461 13.230419989351
45.4857989214361 13.1284098406664
45.515534222126 13.107245909404
45.5452695228159 13.1237537757887
45.5750048235059 13.1847058978243
45.6047401241958 13.067880997256
45.6344754248858 13.1919016344535
45.6642107255757 13.1093623025303
45.6939460262656 13.2431183481084
45.7236813269556 13.0966639437728
45.7534166276455 13.0941242720214
45.7831519283354 13.0661878827551
45.8128872290254 12.9002626616582
45.8426225297153 13.0145478904749
45.8723578304052 13.0098918255972
45.9020931310952 12.9908442874611
45.9318284317851 12.9904210088358
45.961563732475 13.0081987110962
45.991299033165 13.0259764133566
46.0210343338549 12.9510560966878
46.0507696345448 12.959944947818
46.0805049352348 12.9260826577982
46.1102402359247 12.9112679059146
46.1399755366147 12.8376174251216
46.1697108373046 12.92058003567
46.1994461379945 12.8194164442359
46.2291814386845 12.7677764519558
46.2589167393744 12.7576177649499
46.2886520400643 12.8850246311493
46.3183873407543 12.8316915243681
46.3481226414442 12.8134905434825
46.3778579421341 12.7571944863246
46.4075932428241 12.7516918641964
46.437328543514 12.7301046543088
46.4670638442039 12.7745489099597
46.4967991448939 12.6729620399004
46.5265344455838 12.5480948454525
46.5562697462738 12.663649910145
46.5860050469637 12.6721154826499
46.6157403476536 12.6230151621213
46.6454756483436 12.6831207269064
46.6752109490335 12.6953958070385
46.7049462497234 12.6788879406539
46.7346815504134 12.7220623604291
46.7644168511033 12.6433325361331
46.7941521517932 12.6886233490346
46.8238874524832 12.656877452141
46.8536227531731 12.7330676046855
46.883358053863 12.6221686048708
46.913093354553 12.7694695664568
46.9428286552429 12.8101043144805
46.9725639559329 12.5311637004426
47.0022992566228 12.8033318564766
47.0320345573127 12.6767715475277
47.0617698580027 12.6632266315197
47.0915051586926 12.6911630207861
47.1212404593825 12.6479886010108
47.1509757600725 12.7326443260603
47.1807110607624 12.7254485894311
47.2104463614523 12.7830144824647
47.2401816621423 12.7402633413147
47.2699169628322 12.7614272725771
47.2996522635221 12.9772993714531
47.3293875642121 12.8130672648572
47.359122864902 12.9078816769126
47.388858165592 12.9349715089284
47.4185934662819 13.0187806767274
47.4483287669718 12.9311620013012
47.4780640676618 12.8016387419756
47.5077993683517 12.7343374405613
47.5375346690416 12.6183590972435
47.5672699697316 12.5836502499733
47.5970052704215 12.3957145403635
47.6267405711114 12.3216407809453
47.6564758718014 12.2716939031661
47.6862111724913 12.0211129570198
47.7159464731812 12.32121750232
47.7456817738712 12.2992070138072
47.7754170745611 12.2170909605092
47.8051523752511 12.1599483461008
47.834887675941 12.2327522696434
47.8646229766309 12.2606886589097
47.8943582773209 12.1531758880969
47.9240935780108 12.0037585333846
47.9538288787007 12.3521168419631
47.9835641793907 12.2192073536355
48.0132994800806 12.0541286897891
48.0430347807705 11.952965098355
48.0727700814605 12.1641811323533
48.1025053821504 12.1370913003375
48.1322406828403 12.0820650790554
48.1619759835303 12.1883080139924
48.1917112842202 12.1768794911107
48.2214465849102 12.3207942236948
48.2511818856001 12.4117991281229
48.28091718629 12.2958207848052
48.31065248698 12.2141280101325
48.3403877876699 12.5028040325511
48.3701230883598 12.4329630593853
48.3998583890498 12.3952912617383
48.4295936897397 12.331376189326
48.4593289904296 12.2035460445013
48.4890642911196 12.4638623990283
48.5187995918095 12.2382548917716
48.5485348924994 12.204815880377
48.5782701931894 11.990636896002
48.6080054938793 12.1675673613553
48.6377407945693 12.060901147793
48.6674760952592 12.0156103348916
48.6972113959491 11.7726484039997
48.7269466966391 11.8886267473174
48.756681997329 11.8357169191615
48.7864172980189 11.8979388770728
48.8161525987089 11.7887329917591
48.8458878993988 11.8475687206684
48.8756232000887 11.8551877359229
48.9053585007787 11.8937060908204
48.9350938014686 11.8251349535303
48.9648291021585 11.7430189002324
48.9945644028485 11.7900028276348
49.0242997035384 11.8340238046605
49.0540350042284 11.7493680796111
49.0837703049183 11.9059811709525
49.1135056056082 11.7349766063527
49.1432409062982 11.7760346330017
49.1729762069881 11.5804799081375
49.202711507678 11.6714848125656
49.232446808368 11.7904261062601
49.2621821090579 11.76460611012
49.2919174097478 11.5504271257449
49.3216527104378 11.6816434995715
49.3513880111277 11.7506379154868
49.3811233118176 11.6947651369542
49.4108586125076 11.569474663881
49.4405939131975 11.6638657973112
49.4703292138875 11.689262514826
49.5000645145774 11.6575166179325
49.5297998152673 11.6363526866701
49.5595351159573 11.5800566295122
49.5892704166472 11.5533900761216
49.6190057173371 11.4467238625594
49.6487410180271 11.5622789272518
49.678476318717 11.5381520456127
49.7082116194069 11.5182579502261
49.7379469200969 11.6029136752756
49.7676822207868 11.5940248241454
49.7974175214767 11.4890517250841
49.8271528221667 11.5618556486266
49.8568881228566 11.6300035072914
49.8866234235466 11.4708507441984
49.9163587242365 11.5000569693405
49.9460940249264 11.4090520649124
49.9758293256164 11.5229140151039
50.0055646263063 11.4827025457054
50.0352999269962 11.458152385441
50.0650352276862 11.4585756640663
50.0947705283761 11.3637612520109
50.124505829066 11.5923317096444
50.154241129756 11.4767766449519
50.1839764304459 11.3129678169813
50.2137117311358 11.4225969809203
50.2434470318258 11.3421740421233
50.2731823325157 11.3303222406164
50.3029176332057 11.4657714006955
50.3326529338956 11.4843956602064
50.3623882345855 11.2736029048333
50.3921235352755 11.3650310878867
50.4218588359654 11.4048192786599
50.4515941366553 11.4534963205633
50.4813294373453 11.3701104313896
50.5110647380352 11.3565655153817
50.5408000387251 11.4691576296975
50.5705353394151 11.4437609121826
50.600270640105 11.4310625534252
50.6300059407949 11.3324386337426
50.6597412414849 11.3603750230089
50.6894765421748 11.2554019239476
50.7192118428648 11.3967769847802
50.7489471435547 11.3451369925
50.7786824442446 11.4200573091688
50.8084177449346 11.3421740421233
50.8381530456245 11.2625976605768
50.8678883463144 11.4192107519183
50.8976236470044 11.3785760038946
50.9273589476943 11.2566717598234
50.9570942483842 11.3087350307288
50.9868295490742 11.2761425765847
51.0165648497641 11.2647140537031
51.046300150454 11.351909450504
51.076035451144 11.3514861718787
51.1057707518339 11.3354015841194
51.1355060525239 11.432332389301
51.1652413532138 11.2625976605768
51.1949766539037 11.4128615725396
51.2247119545937 11.3815389542713
51.2544472552836 11.3730733817663
51.2841825559735 11.2130740614229
51.3139178566635 11.3578353512575
51.3436531573534 11.3002694582238
51.3733884580433 11.3227032253619
51.4031237587333 11.350216336003
51.4328590594232 11.1707461988982
51.4625943601131 11.2596347102001
51.4923296608031 11.2380475003125
51.522064961493 11.2956133933461
51.551800262183 11.206301603419
51.5815355628729 11.1330744012512
51.6112708635628 11.23381471406
51.6410061642528 11.271486511707
51.6707414649427 11.2824917559635
51.7004767656326 11.2266189774308
51.7302120663226 11.1864075080323
51.7599473670125 11.1885239011586
51.7896826677024 11.2575183170739
51.8194179683924 11.2947668360956
51.8491532690823 11.3104281452298
51.8788885697722 11.2410104506892
51.9086238704622 11.2570950384486
51.9383591711521 11.1855609507819
51.9680944718421 11.281645198713
51.997829772532 11.3726501031411
52.0275650732219 11.3637612520109
52.0573003739119 11.5271468013563
52.0870356746018 11.4945543472123
52.1167709752917 11.5030199197172
52.1465062759817 11.4039727214094
52.1762415766716 11.5601625341256
52.2059768773615 11.6617494041849
52.2357121780515 11.7891562703843
52.2654474787414 11.9817480448718
52.2951827794313 12.0012188616332
52.3249180801213 12.1222765484539
52.3546533808112 12.4503174830204
52.3843886815012 12.3859791319828
52.4141239821911 12.660263681143
52.443859282881 13.1525367223055
52.473594583571 13.3404724319152
52.5033298842609 13.6498891069709
52.5330651849508 14.0003638086756
52.5628004856408 14.7635351699962
52.5925357863307 15.1169728220776
52.6222710870206 15.6985576531672
52.6520063877106 16.150195946306
52.6817416884005 16.747865365155
52.7114769890904 17.0208800784394
52.7412122897804 17.2244770971833
52.7709475904703 17.6105072034087
52.8006828911603 17.9402412524763
52.8304181918502 17.8970668327011
52.8601534925401 17.7827816038843
52.8898887932301 17.7573848863695
52.91962409392 17.3709315015188
52.9493593946099 17.2333659483135
52.9790946952999 16.6306171859615
53.0088299959898 16.1815185645743
53.0385652966797 15.6155950426188
53.0683005973697 15.2164432990107
53.0980358980596 14.4134837469168
53.1277711987495 13.9347556217623
53.1575064994395 13.528408141525
53.1872418001294 13.2769806381281
53.2169771008193 12.8122207076067
53.2467124015093 12.4744443646595
53.2764477021992 12.1260860560811
53.3061830028892 12.0359277089034
53.3359183035791 11.7768811902522
53.365653604269 11.7125428392146
53.395388904959 11.4848189388316
53.4251242056489 11.5969877745221
53.4548595063388 11.351909450504
53.4845948070288 11.4585756640663
53.5143301077187 11.274872740709
53.5440654084086 11.2549786453224
53.5738007090986 11.161857347768
53.6035360097885 11.0661963784621
53.6332713104784 11.1656668553952
53.6630066111684 11.0725455578409
53.6927419118583 11.0636567067107
53.7224772125483 11.0700058860894
53.7522125132382 10.9531809855212
53.7819478139281 11.086513752474
53.8116831146181 10.9328636115093
53.841418415308 10.9320170542588
53.8711537159979 10.9641862297776
53.9008890166879 10.9929691762944
53.9306243173778 10.9100065657459
53.9603596180677 10.8617528024678
53.9900949187577 10.8990013214895
54.0198302194476 10.9552973786474
54.0495655201375 10.8113826460633
54.0793008208275 10.7495839667773
54.1090361215174 10.7466210164005
54.1387714222074 10.708102661503
54.1685067228973 10.7580495392822
54.1982420235872 10.7529701957792
54.2279773242772 10.9239747603791
54.2577126249671 10.8037636308089
54.287447925657 10.8414354284559
54.317183226347 10.8465147719589
54.3469185270369 10.8050334666846
54.3766538277268 10.6272564440808
54.4063891284168 10.7944515010535
54.4361244291067 10.7754039629173
54.4658597297966 10.6331823448343
54.4955950304866 10.7411183942723
54.5253303311765 10.9608000007756
54.5550656318665 10.7686315049134
54.5848009325564 10.7483141309015
54.6145362332463 10.8401655925802
54.6442715339363 10.8443983788326
54.6740068346262 10.6733938142328
54.7037421353161 10.9019642718662
54.7334774360061 10.7876790430495
54.763212736696 10.8355095277024
54.7929480373859 10.8723347680989
54.8226833380759 10.7521236385287
54.8524186387658 10.8355095277024
54.8821539394557 10.7013302034991
54.9118892401457 11.0352970388191
54.9416245408356 10.9815406534127
54.9713598415256 10.9464085275172
55.0010951422155 10.9616465580261
55.0308304429054 11.0319108098171
55.0605657435954 11.2482061873184
55.0903010442853 11.1698996416477
55.1200363449752 11.2261956988056
55.1497716456652 11.2905340498432
55.1795069463551 11.3997399351569
55.209242247045 11.579633350887
55.238977547735 11.5855592516404
55.2687128484249 11.6803736636958
55.2984481491148 11.8462988847927
55.3281834498048 12.0189965638935
55.3579187504947 12.0689434416727
55.3876540511847 12.172223426233
55.4173893518746 12.3250270099472
55.4471246525645 12.3631220862195
55.4768599532545 12.6856603986578
55.5065952539444 12.6776181047781
55.5363305546343 12.5256610783144
55.5660658553243 12.3271434030735
55.5958011560142 12.2213237467617
55.6255364567041 11.9229123159624
55.6552717573941 11.8784680603115
55.685007058084 11.6109559691553
55.7147423587739 11.4149779656658
55.7444776594639 11.3324386337426
55.7742129601538 11.1220691569948
55.8039482608438 11.012863271681
55.8336835615337 11.1305347294997
55.8634188622236 10.9387895122627
55.8931541629136 10.8592131307163
55.9228894636035 10.7377321652703
55.9526247642934 10.8414354284559
55.9823600649834 10.7445046232743
56.0120953656733 10.7144518408817
56.0418306663632 10.7643987186609
56.0715659670532 10.6831292226135
56.1013012677431 10.6386849669625
56.131036568433 10.6264098868303
56.160771869123 10.6983672531224
56.1905071698129 10.6458807035917
56.2202424705029 10.7872557644243
56.2499777711928 10.755933146156
56.2797130718827 10.5921243181853
56.3094483725727 10.6505367684694
56.3391836732626 10.6348754593353
56.3689189739525 10.6141348066982
56.3986542746425 10.5976269403135
56.4283895753324 10.7051397111263
56.4581248760223 10.4761459748676
56.4878601767123 10.6547695547219
56.5175954774022 10.5155108870156
56.5473307780921 10.5078918717611
56.5770660787821 10.5205902305185
56.606801379472 10.5061987572601
56.636536680162 10.5375213755284
56.6662719808519 10.487151219124
56.6960072815418 10.4985797420057
56.7257425822318 10.4092679520785
56.7554778829217 10.4401672917216
56.7852131836116 10.420273196335
56.8149484843016 10.5100082648874
56.8446837849915 10.3597443529246
56.8744190856814 10.3631305819266
56.9041543863714 10.4990030206309
56.9338896870613 10.4736063031161
56.9636249877512 10.3796384483112
56.9933602884412 10.446093192475
57.0230955891311 10.3258820629048
57.0528308898211 10.3965695933211
57.082566190511 10.3830246773132
57.1123014912009 10.4613312229839
57.1420367918909 10.3318079636583
57.1717720925808 10.3978394291969
57.2015073932707 10.4194266390845
57.2312426939607 10.3940299215696
57.2609779946506 10.5536059632878
57.2907132953405 10.5133944938893
57.3204485960305 10.4342413909681
57.3501838967204 10.4232361467117
57.3799191974103 10.4748761389918
57.4096544981003 10.4482095856013
57.4393897987902 10.3669400895538
57.4691250994802 10.3770987765597
57.4988604001701 10.3902204139424
57.52859570086 10.3042948530172
57.55833100155 10.2805912500034
57.5880663022399 10.2450358454826
57.6178016029298 10.3385804216623
57.6475369036198 10.2949827232618
57.6772722043097 10.2729722347489
57.7070075049996 10.1853535593228
57.7367428056896 10.2992155095143
57.7664781063795 10.303871574392
57.7962134070694 10.2598505973663
57.8259487077594 10.2281047004727
57.8556840084493 10.2331840439757
57.8854193091393 10.1273643876639
57.9151546098292 10.2183692920921
57.9448899105191 10.1955122463287
57.9746252112091 10.2450358454826
58.004360511899 10.3059879675182
58.0340958125889 10.2458824027331
58.0638311132789 10.182390608946
58.0935664139688 10.230221093599
58.1233017146587 10.2052476547094
58.1530370153487 10.2369935516029
58.1827723160386 10.1878932310743
58.2125076167285 10.2082106050861
58.2422429174185 10.2048243760841
58.2719782181084 10.1794276585693
58.3017135187984 10.1900096242005
58.3314488194883 10.0541371854962
58.3611841201782 10.158263727307
58.3909194208682 10.2780515782519
58.4206547215581 10.1976286394549
58.450390022248 10.185776837948
58.480125322938 10.182390608946
58.5098606236279 10.1315971739164
58.5395959243178 10.1294807807901
58.5693312250078 10.1248247159124
58.5990665256977 10.2530781393623
58.6288018263876 10.1023909487743
58.6585371270776 10.2056709333346
58.6882724277675 10.2615437118673
58.7180077284575 10.1620732349342
58.7477430291474 10.0609096435001
58.7774783298373 10.2353004371019
58.8072136305273 10.2069407692104
58.8369489312172 10.1244014372872
58.8666842319071 10.1760414295673
58.8964195325971 10.156570612806
58.926154833287 10.2573109256148
58.9558901339769 10.271279120248
58.9856254346669 10.1578404486817
59.0153607353568 10.1963588035792
59.0450960360467 10.0769942312595
59.0748313367367 10.1053538991511
59.1045666374266 10.113819471656
59.1343019381166 10.0647191511273
59.1640372388065 10.0858830823897
59.1937725394964 9.97329096807394
59.2235078401864 10.1417558609223
59.2532431408763 10.0685286587546
59.2829784415662 10.0185817809754
59.3127137422562 10.0101162084704
59.3424490429461 10.2310676508495
59.372184343636 10.0278939107308
59.401919644326 10.1370997960446
59.4316549450159 10.0554070213719
59.4613902457058 10.1019676701491
59.4911255463958 10.0232378458531
59.5208608470857 10.0833434106382
59.5505961477757 10.2010148684569
59.5803314484656 10.2166761775911
59.6100667491555 10.113819471656
59.6398020498455 10.0270473534803
59.6695373505354 10.0325499756085
59.6992726512253 10.0583699717486
59.7290079519153 10.144718811299
59.7587432526052 10.0164653878492
59.7884785532951 10.184083723447
59.8182138539851 10.0659889870031
59.847949154675 10.0507509564942
59.8776844553649 10.0177352237249
59.9074197560549 10.1426024181728
59.9371550567448 10.1739250364411
59.9668903574348 9.92334409029477
59.9966256581247 10.0173119450996
60.0263609588146 10.1040840632753
60.0560962595046 9.99318506346056
60.0858315601945 10.0300103038571
60.1155668608844 9.97413752532444
60.1453021615744 10.0808037388867
60.1750374622643 10.0706450518808
60.2047727629542 9.99022211308383
60.2345080636442 9.99064539170908
60.2642433643341 10.0473647274922
60.293978665024 9.97498408257493
60.323713965714 10.074454559508
60.3534492664039 9.93604244905219
60.3831845670938 9.95466670856307
60.4129198677838 10.0126558802219
60.4426551684737 10.040168990863
60.4723904691637 10.1125496357803
60.5021257698536 10.1684224143129
60.5318610705435 9.95043392231059
60.5615963712335 10.184083723447
60.5913316719234 10.0647191511273
60.6210669726133 10.1413325822971
60.6508022733033 9.90006376590618
60.6805375739932 9.9263070406715
60.7102728746831 9.95805293756504
60.7400081753731 10.1307506166659
60.769743476063 10.0266240748551
60.7994787767529 10.151491269303
60.8292140774429 10.0151955519734
60.8589493781328 10.112126357155
60.8886846788228 9.93223294142497
60.9184199795127 10.0816502961372
60.9481552802026 9.92757687654725
60.9778905808926 10.000804078715
61.0076258815825 10.0266240748551
61.0373611822724 9.94535457880763
61.0670964829624 9.92884671242299
61.0968317836523 10.1430256967981
61.1265670843422 9.89159819340124
61.1563023850322 9.95889949481554
61.1860376857221 10.036782761861
61.215772986412 10.0283171893561
61.245508287102 10.1337135670426
61.2752435877919 9.93350277730071
61.3049788884819 9.98683588408185
61.3347141891718 9.99868768558877
61.3644494898617 9.81964082710922
61.3941847905517 10.0697984946303
61.4239200912416 10.0228145672279
61.4536553919315 9.97159785357295
61.4833906926215 9.96821162457098
61.5131259933114 9.95255031543683
61.5428612940013 10.0016506359655
61.5725965946913 9.91699491091607
61.6023318953812 10.0515975137447
61.6320671960711 10.1011211128986
61.6618024967611 10.1053538991511
61.691537797451 10.154877498305
61.721273098141 10.1040840632753
61.7510083988309 10.0427086626145
61.7807436995208 10.1311738952911
61.8104790002108 10.1332902884174
61.8402143009007 10.1438722540486
61.8699496015906 10.0909624258927
61.8996849022806 10.1709620860644
61.9294202029705 10.3097974751454
61.9591555036604 10.2467289599836
61.9888908043504 10.3360407499108
62.0186261050403 10.4731830244909
62.0483614057302 10.4583682726072
62.0780967064202 10.5912777609348
62.1078320071101 10.6369918524615
62.1375673078001 10.7690547835386
62.16730260849 10.7161449553827
62.1970379091799 10.8744511612252
62.2267732098699 10.9417524626395
62.2565085105598 11.0124399930558
62.2862438112497 11.3172006032337
62.3159791119397 11.2054550461685
62.3457144126296 11.5207976219776
62.3754497133195 11.5758238432597
62.4051850140095 11.8949759266961
62.4349203146994 12.0964565523138
62.4646556153893 12.3512702847126
62.4943909160793 12.6128564751153
62.5241262167692 12.8460829976265
62.5538615174592 13.0141246118496
62.5835968181491 13.3997314394498
62.613332118839 13.7023756565016
62.643067419529 14.049040850579
62.6728027202189 14.1087231367388
62.7025380209088 14.4177165331693
62.7322733215988 14.4972929147158
62.7620086222887 14.7224771433472
62.7917439229786 14.9988780856337
62.8214792236686 14.7821594295071
62.8512145243585 14.9684020246159
62.8809498250484 14.8520004026729
62.9106851257384 14.7855456585091
62.9404204264283 14.7351755021047
62.9701557271183 14.5133775024751
62.9998910278082 14.1188818237448
63.0296263284981 13.744280240401
63.0593616291881 13.5178261758938
63.089096929878 13.3066101418954
63.1188322305679 12.8816384021473
63.1485675312579 12.5184653416852
63.1783028319478 12.0905306515603
63.2080381326377 11.9351873960946
63.2377734333277 11.6418553087983
63.2675087340176 11.5483107326187
63.2972440347075 11.1296881722492
63.3269793353975 10.9464085275172
63.3567146360874 10.8190016613178
63.3864499367774 10.6522298829704
63.4161852374673 10.5980502189388
63.4459205381572 10.4689502382384
63.4756558388472 10.4223895894612
63.5053911395371 10.1751948723168
63.535126440227 10.1510679906778
63.564861740917 10.0846132465139
63.5945970416069 10.1028142273996
63.6243323422968 9.87847655601857
63.6540676429868 10.0088463725947
63.6838029436767 9.93307949867546
63.7135382443666 9.84249787287257
63.7432735450566 9.88736540714877
63.7730088457465 9.75953526232412
63.8027441464365 9.68122871665339
63.8324794471264 9.64525003350738
63.8622147478163 9.7701172279553
63.8919500485063 9.56313398020943
63.9216853491962 9.66345101439301
63.9514206498861 9.72355657917811
63.9811559505761 9.61181102211285
64.010891251266 9.60884807173612
64.0406265519559 9.7100116631702
64.0703618526459 9.53519759094312
64.1000971533358 9.69054084640883
64.1298324540257 9.65921822814054
64.1595677547157 9.55974775120745
64.1893030554056 9.54916578557627
64.2190383560956 9.69562018991179
64.2487736567855 9.60673167860989
64.2785089574754 9.54789594970053
64.3082442581654 9.37392843472394
64.3379795588553 9.48440415591345
64.3677148595452 9.63593790375194
64.3974501602352 9.51699661005749
64.4271854609251 9.50429825130007
64.456920761615 9.5072612016768
64.486656062305 9.56059430845795
64.5163913629949 9.5682133237124
64.5461266636848 9.41710285449915
64.5758619643748 9.60969462898662
64.6055972650647 9.50133530092334
64.6353325657547 9.45011858726843
64.6650678664446 9.66260445714252
64.6948031671345 9.49329300704365
64.7245384678245 9.47720841928425
64.7542737685144 9.45223498039467
64.7840090692043 9.46408678190159
64.8137443698943 9.50260513679908
64.8434796705842 9.38620351485611
64.8732149712741 9.46408678190159
64.9029502719641 9.45477465214615
64.932685572654 9.37646810647542
64.9624208733439 9.49837235054661
64.9921561740339 9.47509202615802
65.0218914747238 9.30197106843192
65.0516267754138 9.41202351099619
65.0813620761037 9.39297597286006
65.1110973767936 9.34514548820713
65.1408326774836 9.48355759866296
65.1705679781735 9.38916646523284
65.2003032788634 9.29519861042797
65.2300385795534 9.37477499197444
65.2597738802433 9.3502248317101
65.2895091809332 9.25075435477701
65.3192444816232 9.49033005666691
65.3489797823131 9.40440449574174
65.378715083003 9.33456352257596
65.408450383693 9.36800253397048
65.4381856843829 9.26006648453245
65.4679209850729 9.42895465600607
65.4976562857628 9.3053572974339
65.5273915864527 9.2820769730453
65.5571268871427 9.44546252239071
65.5868621878326 9.37350515609869
65.6165974885225 9.39932515223877
65.6463327892125 9.25752681278097
65.6760680899024 9.35149466758584
65.7058033905923 9.24863796165078
65.7355386912823 9.27657435091709
65.7652739919722 9.23297665251663
65.7950092926621 9.24906124027602
65.8247445933521 9.19869108387161
65.854479894042 9.21816190063298
65.884215194732 9.27699762954234
65.9139504954219 9.33752647295268
65.9436857961118 9.26175959903344
65.9734210968018 9.20969632812804
66.0031563974917 9.21054288537853
66.0328916981816 9.27742090816758
66.0626269988716 9.11699830919891
66.0923622995615 9.25371730515374
66.1220976002514 9.30620385468439
66.1518329009414 9.24398189677306
66.1815682016313 9.07128421767221
66.2113035023212 9.06959110317122
66.2410388030112 9.25837337003146
66.2707741037011 9.15847961447313
66.3005094043911 9.18218321748697
66.330244705081 9.21773862200773
66.3599800057709 9.31636254169033
66.3897153064609 9.09668093518704
66.4194506071508 9.04165471390491
66.4491859078407 9.14154846946324
66.4789212085307 9.14662781296621
66.5086565092206 9.13054322520682
66.5383918099105 9.03149602689898
66.5681271106005 9.05562290853807
66.5978624112904 9.0873688054316
66.6275977119803 9.10726290081822
66.6573330126703 9.07424716804894
66.6870683133602 9.09879732831328
66.7168036140502 8.98070259186932
66.7465389147401 9.05477635128757
66.77627421543 9.08398257642963
66.80600951612 9.08440585505487
66.8357448168099 9.0873688054316
66.8654801174998 9.13138978245731
66.8952154181898 9.04715733603312
66.9249507188797 9.06239536654202
66.9546860195696 9.05181340091084
66.9844213202596 9.04419438565639
67.0141566209495 9.11488191607267
67.0438919216394 9.03953832077867
67.0736272223294 9.13858551908651
67.1033625230193 9.11996125957564
67.1330978237092 8.98535865674704
67.1628331243992 9.04038487802917
67.1925684250891 9.07213077492271
67.2223037257791 8.99043800025
67.252039026469 8.96758095448665
67.2817743271589 9.04207799253016
67.3115096278489 8.98366554224605
67.3412449285388 9.07509372529944
67.3709802292287 9.06366520241776
67.4007155299187 8.97689308424209
67.4304508306086 9.04885045053411
67.4601861312985 9.03869176352818
67.4899214319885 8.96419472548468
67.5196567326784 9.07932651155191
67.5493920333683 9.04715733603312
67.5791273340583 9.02853307652225
67.6088626347482 9.04927372915936
67.6385979354382 8.98535865674704
67.6683332361281 9.02641668339601
67.698068536818 8.97689308424209
67.727803837508 9.14578125571571
67.7575391381979 9.00313635900742
67.7872744388878 9.0425012711554
67.8170097395778 9.02726324064651
67.8467450402677 8.95742226748072
67.8764803409576 8.97181374073912
67.9062156416476 8.90027965307235
67.9359509423375 9.05096684366035
67.9656862430274 9.09287142755982
67.9954215437174 9.02557012614552
68.0251568444073 9.09033175580833
68.0548921450973 9.03572881315145
68.0846274457872 9.03572881315145
68.1143627464771 9.1250406030786
68.1440980471671 9.10556978631723
68.173833347857 9.00355963763266
68.2035686485469 8.87318982105653
68.2333039492369 9.10514650769199
68.2630392499268 8.9984802941297
68.2927745506167 9.11996125957564
68.3225098513067 8.90027965307235
68.3522451519966 8.96165505373319
68.3819804526865 8.93625833621836
68.4117157533765 8.79869278301303
68.4414510540664 9.03191930552422
68.4711863547564 8.97689308424209
68.5009216554463 8.98027931324407
68.5306569561362 9.04461766428164
68.5603922568262 8.94811013772528
68.5901275575161 9.07636356117518
68.619862858206 9.07255405354795
68.649598158896 8.97308357661487
68.6793334595859 9.03234258414947
68.7090687602758 9.04504094290689
68.7388040609658 9.08694552680636
68.7685393616557 9.05265995816134
68.7982746623456 9.18302977473746
68.8280099630356 9.19276518311815
68.8577452637255 9.23509304564287
68.8874805644155 9.10218355731526
68.9172158651054 9.08482913368012
68.9469511657953 9.19742124799587
68.9766864664853 9.27022517153838
69.0064217671752 9.41710285449915
69.0361570678651 9.36842581259573
69.0658923685551 9.38197072860364
69.095627669245 9.63720773962769
69.1253629699349 9.60207561373217
69.1550982706249 9.86112213238344
69.1848335713148 9.98090998332839
69.2145688720047 10.0693752160051
69.2443041726947 10.1912794600762
69.2740394733846 10.5400610472799
69.3037747740746 10.5938174326863
69.3335100747645 10.8520173940871
69.3632453754544 11.1013285043577
69.3929806761444 11.4352953396777
69.4227159768343 11.8484152779189
69.4524512775242 12.1646044109786
69.4821865782142 12.5282007500659
69.5119218789041 12.9320085585517
69.541657179594 13.0831190277649
69.571392480284 13.3595199700513
69.6011277809739 13.4073504547043
69.6308630816638 13.2012137642089
69.6605983823538 13.0594154247511
69.6903336830437 12.8668236502636
69.7200689837337 12.6746551544014
69.7498042844236 12.4917987882946
69.7795395851135 12.3483073343358
69.8092748858035 12.2704240672904
69.8390101864934 12.0600545905425
69.8687454871833 12.0744460638009
69.8984807878733 12.024922464647
69.9282160885632 11.8623834725521
69.9579513892531 11.8928595335699
69.9876866899431 11.9775152586193
70.017421990633 12.3961378189888
70.0471572913229 12.4304233876338
70.0768925920129 12.5214282920619
70.1066278927028 12.9789924859541
70.1363631933928 13.1665049169386
70.1660984940827 13.6321114047105
70.1958337947726 13.8818457936064
70.2255690954626 14.1827968961571
70.2553043961525 14.3614204760114
70.2850396968424 14.684382067075
70.3147749975324 14.9937987421307
70.3445102982223 15.3679770468492
70.3742455989122 15.586812096102
70.4039808996022 15.8598268093864
70.4337162002921 15.9131599161676
70.463451500982 16.1188733280377
70.493186801672 16.2268093774757
70.5229221023619 16.1654339768149
70.5526574030519 16.1908306943297
70.5823927037418 16.033794324363
70.6121280044317 15.9669163015739
70.6418633051217 15.4352783482635
70.6715986058116 15.2718927989181
70.7013339065015 14.7521066471145
70.7310692071915 14.4638539033212
70.7608045078814 13.9745438125355
70.7905398085713 13.415392748584
70.8202751092613 13.0822724705144
70.8500104099512 12.6378299140049
70.8797457106411 12.3161381588171
70.9094810113311 11.8928595335699
70.939216312021 11.5038664769677
70.968951612711 11.1999524240403
70.9986869134009 10.870641653598
71.0284222140908 10.5032358068834
71.0581575147808 10.2962525591375
71.0878928154707 10.1379463532951
71.1176281161606 10.1002745556481
71.1473634168506 9.75191624706967
71.1770987175405 9.47212907578129
71.2068340182304 9.39551564461155
71.2365693189204 9.43742022851102
71.2663046196103 9.28419336617154
71.2960399203002 9.19445829761914
71.3257752209902 9.04885045053411
71.3555105216801 9.01075537426187
71.3852458223701 9.00440619488316
71.41498112306 8.99975013000544
71.4447164237499 8.92821604233867
71.4744517244399 8.92652292783768
71.5041870251298 8.97054390486338
71.5339223258197 8.88842785156543
71.5636576265097 8.71742328696557
71.5933929271996 8.66409018018443
71.6231282278895 8.71911640146656
71.6528635285795 8.79911606163828
71.6825988292694 8.70430164958291
71.7123341299593 8.57477839025728
71.7420694306493 8.57012232537956
71.7718047313392 8.56673609637758
71.8015400320292 8.46218627594153
71.8312753327191 8.57647150475826
71.861010633409 8.64715903517454
71.890745934099 8.49562528733605
71.9204812347889 8.61922264590823
71.9502165354788 8.47022856982122
71.9799518361688 8.44567840955689
72.0096871368587 8.35805973413072
72.0394224375486 8.38218661576981
72.0691577382386 8.3838797302708
72.0988930389285 8.31954137923323
72.1286283396184 8.40504366153316
72.1583636403084 8.38811251652327
72.1880989409983 8.29795416934562
72.2178342416883 8.43467316530046
72.2475695423782 8.39319186002624
72.2773048430681 8.4511810316851
72.3070401437581 8.34663121124905
72.336775444448 8.21710795192341
72.3665107451379 8.35128727612677
72.3962460458279 8.28906531821543
72.4259813465178 8.38599612339704
72.4557166472077 8.31361547847977
72.4854519478977 8.33604924561787
72.5151872485876 8.38472628752129
72.5449225492775 8.34155186774608
72.5746578499675 8.27509712358228
72.6043931506574 8.25012368469269
72.6341284513474 8.25901253582288
72.6638637520373 8.26620827245208
72.6935990527272 8.30472662734958
72.7233343534172 8.32208105098471
72.7530696541071 8.32546727998669
72.782804954797 8.35594334100449
72.812540255487 8.33943547461985
72.8422755561769 8.315731871606
72.8720108568668 8.33350957386638
72.9017461575568 8.34790104712479
72.9314814582467 8.27001778007931
72.9612167589366 8.25012368469269
72.9909520596266 8.41858857754107
73.0206873603165 8.23065286793132
73.0504226610065 8.27848335258425
73.0801579616964 8.15784894438881
73.1098932623863 8.24589089844022
73.1396285630763 8.33350957386638
73.1693638637662 8.28398597471246
73.1990991644561 8.43805939430244
73.2288344651461 8.25097024194319
73.258569765836 8.35721317688023
73.2883050665259 8.24546761981497
73.3180403672159 8.45668365381331
73.3477756679058 8.35044071887627
73.3775109685957 8.39996431803019
73.4072462692857 8.39149874552525
73.4369815699756 8.43001710042274
73.4667168706656 8.31192236397878
73.4964521713555 8.51594266134792
73.5261874720454 8.41562562716434
73.5559227727354 8.38134005851932
73.5856580734253 8.52313839797712
73.6153933741152 8.541762657488
73.6451286748052 8.47700102782518
73.6748639754951 8.49816495908754
73.704599276185 8.59213281389241
73.734334576875 8.65012198555127
73.7640698775649 8.728428531222
73.7938051782548 8.7652537716185
73.8235404789448 8.82027999290064
73.8532757796347 8.84440687453973
73.8830110803247 8.88292522943722
73.9127463810146 8.95615243160498
73.9424816817045 8.90408916069958
73.9722169823945 8.80927474864421
74.0019522830844 8.86599408442733
74.0316875837743 8.99213111475099
74.0614228844643 8.91636424083175
74.0911581851542 8.91340129045502
74.1208934858441 8.83805769516102
74.1506287865341 8.87445965693228
74.180364087224 8.9455704659738
74.2100993879139 8.86260785542535
74.2398346886039 8.75509508461257
74.2695699892938 8.85879834779813
74.2993052899837 8.6683229664369
74.3290405906737 8.72715869534626
74.3587758913636 8.72419574496953
74.3885111920536 8.65731772218047
74.4182464927435 8.60610100852556
74.4479817934334 8.47192168432221
74.4777170941234 8.57901117650975
74.5074523948133 8.52102200485088
74.5371876955032 8.51213315372069
74.5669229961932 8.45160431031035
74.5966582968831 8.31488531435551
74.626393597573 8.37626071501635
74.656128898263 8.30514990597482
74.6858641989529 8.28102302433573
74.7155994996428 8.42705415004601
74.7453348003328 8.23361581830805
74.7750701010227 8.37795382951734
74.8048054017127 8.30388007009908
74.8345407024026 8.25097024194319
74.8642760030925 8.36271579900844
74.8940113037825 8.25943581444813
74.9237466044724 8.49435545146031
74.9534819051623 8.41393251266335
74.9832172058523 8.48842955070685
75.0129525065422 8.40208071115643
75.0426878072321 8.47065184844647
75.0724231079221 8.49562528733605
75.102158408612 8.48758299345636
75.1318937093019 8.51932889034989
75.1616290099919 8.49012266520784
75.1913643106818 8.54218593611324
75.2210996113718 8.6386934626696
75.2508349120617 8.77202622962246
75.2805702127516 8.86768719892832
75.3103055134416 8.96715767586141
75.3400408141315 8.9303324354649
75.3697761148214 9.26133632040819
75.3995114155114 9.21054288537853
75.4292467162013 9.25287074790325
75.4589820168912 9.52503890393718
75.4887173175812 9.69900641891377
75.5184526182711 9.89075163615074
75.548187918961 10.0681053801293
75.577923219651 10.3487391086682
75.6076585203409 10.5823889098046
75.6373938210309 10.7402718370218
75.6671291217208 11.0158262220577
75.6968644224107 11.1339209585017
75.7265997231007 11.423866816796
75.7563350237906 12.0194198425188
75.7860703244805 12.0617477050435
75.8158056251705 12.3940214258625
75.8455409258604 12.7224856390543
75.8752762265503 12.8985695471572
75.9050115272403 13.0251298561061
75.9347468279302 13.2566632641163
75.9644821286201 13.4932760156295
75.9942174293101 13.745973354902
76.02395273 13.8881949729851
76.05368803069 14.0972946138572
76.0834233313799 14.1184585451195
76.1131586320698 14.3690394912659
76.1428939327598 14.2454421326937
76.1726292334497 14.2691457357075
76.2023645341396 13.9868188926677
76.2320998348296 14.0414218353245
76.2618351355195 13.9169779195019
76.2915704362094 13.5897835421858
76.3213057368994 13.2295734321005
76.3510410375893 13.0949708292719
76.3807763382792 12.9671406844472
76.4105116389692 12.6289410628747
76.4402469396591 12.3093657008131
76.4699822403491 12.0744460638009
76.499717541039 11.7248179193468
76.5294528417289 11.5186812288514
76.5591881424189 11.2621743819516
76.5889234431088 11.0602704777087
76.6186587437987 10.8219646116945
76.6483940444887 10.7267269210139
76.6781293451786 10.5180505587671
76.7078646458685 10.5349817037769
76.7375999465585 10.5565689136645
76.7673352472484 10.3944532001949
76.7970705479383 10.559108585416
76.8268058486283 10.4278922115894
76.8565411493182 10.7398485583966
76.8862764500082 10.6962508599961
76.9160117506981 10.8071498598109
76.945747051388 10.9023875504915
76.975482352078 11.0577308059572
77.0052176527679 11.2367776644368
77.0349529534578 11.4369884541787
77.0646882541478 11.5140251639737
77.0944235548377 11.6477812095518
77.1241588555276 11.720161854469
77.1538941562176 11.8547644572976
77.1836294569075 11.8094736443962
77.2133647575974 12.1028057316925
77.2431000582874 11.947885754852
77.2728353589773 12.0570916401658
77.3025706596673 12.1955037506216
77.3323059603572 12.0071447623866
77.3620412610471 11.9919067318777
77.3917765617371 11.7633362742442
77.421511862427 11.8602670794258
77.4512471631169 11.6266172782894
77.4809824638069 11.5952946600211
77.5107177644968 11.1677832485215
77.5404530651867 11.1263019432472
77.5701883658767 10.858789852091
77.5999236665666 10.7436580660238
77.6296589672565 10.3068345247687
77.6593942679465 10.1722319219401
77.6891295686364 9.98048670470314
77.7188648693264 9.90260343765766
77.7486001700163 9.52673201843817
77.7783354707062 9.34091270195466
77.8080707713962 9.2532940265285
77.8378060720861 9.12419404582811
77.867541372776 8.96673439723616
77.897276673466 8.7580580349893
77.9270119741559 8.57266199713104
77.9567472748458 8.58112756963598
77.9864825755358 8.46303283319202
78.0162178762257 8.45753021106381
78.0459531769156 8.32250432960996
78.0756884776056 8.29372138309315
78.1054237782955 8.13837812762744
78.1351590789855 8.05668535295473
78.1648943796754 8.09732010097846
78.1946296803653 7.97880208590925
78.2243649810553 7.97033651340431
78.2541002817452 7.96144766227412
78.2838355824351 7.92292930737663
78.3135708831251 7.85689784183807
78.343306183815 7.84292964720491
78.3730414845049 7.80652768543365
78.4027767851949 7.71467622375502
78.4325120858848 7.81710965106483
78.4622473865747 7.79467588392673
78.4919826872647 7.78959654042376
78.5217179879546 7.77435850991487
78.5514532886446 7.68462344136247
78.5811885893345 7.66007328109813
78.6109238900244 7.63763951396003
78.6406591907144 7.60293066668976
78.6703944914043 7.65795688797189
78.7001297920942 7.72779786113768
78.7298650927842 7.66980868947881
78.7596003934741 7.6194385330744
78.789335694164 7.61266607507045
78.819070994854 7.62070836895014
78.8488062955439 7.61181951781995
78.8785415962338 7.72652802526194
78.9082768969238 7.5449414950309
78.9380121976137 7.69351229249266
78.9677474983037 7.53562936527546
78.9974827989936 7.6571103307214
79.0272180996835 7.67361819710604
79.0569534003735 7.58642280030512
79.0866887010634 7.61986181169965
79.1164240017533 7.59996771631303
79.1461593024433 7.50388346838192
79.1758946031332 7.44547101809781
79.2056299038231 7.48229625849432
79.2353652045131 7.56271919729128
79.265100505203 7.53605264390071
79.2948358058929 7.44039167459485
79.3245711065829 7.45901593410572
79.3543064072728 7.50134379663044
79.3840417079628 7.49584117450223
79.4137770086527 7.47340740736413
79.4435123093426 7.50853953325964
79.4732476100326 7.51361887676261
79.5029829107225 7.46536511348443
79.5327182114124 7.42134413645872
79.5624535121024 7.34261431216275
79.5921888127923 7.33838152591028
79.6219241134822 7.4247303654607
79.6516594141722 7.45139691885127
79.6813947148621 7.45647626235424
79.711130015552 7.43107954483941
79.740865316242 7.36758775105233
79.7706006169319 7.32356677402662
79.8003359176219 7.34896349154146
79.8300712183118 7.44885724709979
79.8598065190017 7.30959857939347
79.8895418196917 7.43404249521614
79.9192771203816 7.39002151819043
79.9490124210715 7.35827562129689
79.9787477217615 7.41203200670329
80.0084830224514 7.32525988852761
80.0382183231413 7.30705890764199
80.0679536238313 7.39806381207013
80.0976889245212 7.52504739964428
80.1274242252111 7.40060348382161
80.1571595259011 7.4704444569874
80.186894826591 7.36758775105233
80.216630127281 7.30367267864001
80.2463654279709 7.42134413645872
80.2761007286608 7.25330252223559
80.3058360293508 7.27065694587073
80.3355713300407 7.30621235039149
80.3653066307306 7.45055036160078
80.3950419314206 7.38875168231469
80.4247772321105 7.26896383136974
80.4545125328004 7.30324940001476
80.4842478334904 7.32314349540138
80.5139831341803 7.25033957185886
80.5437184348702 7.34388414803849
80.5734537355602 7.34769365566571
80.6031890362501 7.35954545717263
80.6329243369401 7.27319661762221
80.66265963763 7.22324973984304
80.6923949383199 7.31213825114495
80.7221302390099 7.32991595340533
80.7518655396998 7.23891104897719
80.7816008403897 7.32483660990237
80.8113361410797 7.267693995494
80.8410714417696 7.15679499567924
80.8708067424595 7.22155662534206
80.9005420431495 7.24737662148213
80.9302773438394 7.27150350312122
80.9600126445293 7.21182121696137
80.9897479452193 7.2973234992613
81.0194832459092 7.27869923975042
81.0492185465992 7.27996907562617
81.0789538472891 7.38282578156123
81.108689147979 7.34388414803849
81.138424448669 7.41922774333249
81.1681597493589 7.24653006423164
81.1978950500488 7.4094923349518
81.2276303507388 7.30748218626723
81.2573656514287 7.34176775491225
81.2871009521186 7.40652938457507
81.3168362528086 7.4992274035042
81.3465715534985 7.46367199898344
81.3763068541884 7.42430708683545
81.4060421548784 7.56695198354375
81.4357774555683 7.37605332355727
81.4655127562582 7.5440949377804
81.4952480569482 7.53012674314725
81.5249833576381 7.60927984606847
81.5547186583281 7.78324736104506
81.584453959018 7.64525852921448
81.6141892597079 7.69351229249266
81.6439245603979 7.78494047554605
81.6736598610878 7.72906769701342
81.7033951617777 7.84546931895639
81.7331304624677 7.91277062037069
81.7628657631576 7.90515160511624
81.7926010638475 8.00250568892309
81.8223363645375 8.09097092159975
81.8520716652274 8.00419880342408
81.8818069659173 8.06980699033739
81.9115422666073 8.13160566962348
81.9412775672972 8.26578499382684
81.9710128679872 8.1883250054066
82.0007481686771 8.31827154335749
82.030483469367 8.39996431803019
82.060218770057 8.28313941746197
82.0899540707469 8.46684234081924
82.1196893714368 8.46599578356875
82.1494246721268 8.64504264204831
82.1791599728167 8.71065082896162
82.2088952735066 8.69287312670124
82.2386305741966 8.63446067641713
82.2683658748865 8.71022755033637
82.2981011755764 8.690756733575
82.3278364762664 8.81308425627143
82.3575717769563 8.92821604233867
82.3873070776463 8.9375281720941
82.4170423783362 8.915094404956
82.4467776790261 8.89308391644315
82.4765129797161 8.86049146229912
82.506248280406 8.84313703866398
82.5359835810959 8.75551836323782
82.5657188817859 8.63911674129485
82.5954541824758 8.38768923789802
82.6251894831657 8.30303351284859
82.6549247838557 8.16800763139474
82.6846600845456 8.24631417706547
82.7143953852355 8.10493911623291
82.7441306859255 8.04906633770028
82.7738659866154 7.92377586462712
82.8036012873054 7.88398767385389
82.8333365879953 7.78155424654407
82.8630718886852 7.58642280030512
82.8928071893752 7.5064231401334
82.9225424900651 7.45478314785325
82.952277790755 7.38409561743697
82.982013091445 7.39806381207013
83.0117483921349 7.38536545331271
83.0414836928248 7.32314349540138
83.0712189935148 7.33711169003453
83.1009542942047 7.18600122082129
83.1306895948946 7.14663630867331
83.1604248955846 7.19150384294951
83.1901601962745 7.11869991940699
83.2198954969645 7.2380644917267
83.2496307976544 7.13055172091391
83.2793660983443 7.14325007967133
83.3091013990343 7.11235074002828
83.3388366997242 7.10684811790007
83.3685720004141 7.06113402637338
83.3983073011041 7.13097499953916
83.428042601794 7.1627208964327
83.4577779024839 7.02600190047786
83.4875132031739 7.11150418277779
83.5172485038638 7.08441435076197
83.5469838045537 7.02346222872638
83.5767191052437 6.98748354558037
83.6064544059336 7.0657900912511
83.6361897066236 7.14451991554707
83.6659250073135 7.02684845772836
83.6956603080034 7.05436156836942
83.7253956086934 7.11616024765551
83.7551309093833 7.13182155678965
83.7848662100732 7.03150452260607
83.8146015107632 7.08568418663771
83.8443368114531 7.11150418277779
83.874072112143 7.0569012401209
83.903807412833 7.11319729727878
83.9335427135229 7.00991731271847
83.9632780142128 6.98367403795314
83.9930133149028 6.99594911808531
84.0227486155927 7.01584321347193
84.0524839162827 6.97944125170067
84.0822192169726 6.9599704349393
84.1119545176625 7.00018190433778
84.1416898183525 6.96124027081504
84.1714251190424 6.89901831290371
84.2011604197323 6.93457371742447
84.2308957204223 6.95362125556059
84.2606310211122 6.95573764868683
84.2903663218021 6.93584355330021
84.3201016224921 6.93795994642645
84.349836923182 6.90875372128439
84.3795722238719 6.96462649981702
84.4093075245619 6.81901865273199
84.4390428252518 6.87235175951314
84.4687781259418 6.82790750386218
84.4985134266317 6.84356881299633
84.5282487273216 6.95785404181307
84.5579840280116 6.93161076704774
84.5877193287015 6.73605604218355
84.6174546293914 6.80378062222309
84.6471899300814 6.94854191205763
84.6769252307713 6.93711338917595
84.7066605314612 6.89224585489975
84.7363958321512 6.93203404567299
84.7661311328411 6.92060552279131
84.795866433531 6.968012728819
84.825601734221 6.81351603060378
84.8553370349109 6.88631995414629
84.8850723356009 6.88758979002203
84.9148076362908 6.89436224802599
84.9445429369807 6.81605570235526
84.9742782376707 6.72928358417959
85.0040135383606 6.8846268396453
85.0337488390505 6.86261635113245
85.0634841397405 6.854997335878
85.0932194404304 6.70854293154248
85.1229547411203 6.80928324435131
85.1526900418103 6.82663766798644
85.1824253425002 6.81774881685625
85.2121606431901 6.82706094661169
85.2418959438801 6.85076454962553
85.27163124457 6.83510324049139
85.30136654526 6.85245766412652
85.3311018459499 6.85542061450325
85.3608371466398 6.80674357259982
85.3905724473298 6.76568554595085
85.4203077480197 6.80589701534933
85.4500430487096 6.93922978230219
85.4797783493996 6.83467996186614
85.5095136500895 6.82071176723298
85.5392489507794 6.83171701148941
85.5689842514694 6.85076454962553
85.5987195521593 6.92102880141656
85.6284548528492 6.82282816035922
85.6581901535392 6.85669045037899
85.6879254542291 6.97436190819771
85.7176607549191 6.83891274811861
85.747396055609 7.00991731271847
85.7771313562989 6.85203438550127
85.8068666569889 6.95023502655862
85.8366019576788 7.02473206460212
85.8663372583687 7.0128802630952
85.8960725590587 6.91213995028637
85.9258078597486 7.0200759997244
85.9555431604385 7.00610780509124
85.9852784611285 7.01668977072242
86.0150137618184 7.09795926676988
86.0447490625083 7.05182189661794
86.0744843631983 6.89859503427846
86.1042196638882 7.03235107985657
86.1339549645782 7.14832942317429
86.1636902652681 7.18473138494555
86.193425565958 7.11869991940699
86.223160866648 7.31721759464792
86.2528961673379 7.28716481225537
86.2826314680278 7.33118578928107
86.3123667687178 7.36970414417857
86.3421020694077 7.36166185029887
86.3718373700976 7.48187297986907
86.4015726707876 7.42346052958496
86.4313079714775 7.40483627007408
86.4610432721674 7.48144970124382
86.4907785728574 7.4704444569874
86.5205138735473 7.6122427964452
86.5502491742373 7.57922706367592
86.5799844749272 7.57668739192444
86.6097197756171 7.62324804070163
86.6394550763071 7.62875066282984
86.669190376997 7.65118442996794
86.6989256776869 7.58430640717889
86.7286609783769 7.4928782241255
86.7583962790668 7.55256051028535
86.7881315797567 7.58049689955166
86.8178668804467 7.60123755218877
86.8476021811366 7.3798628311845
86.8773374818265 7.4022965983226
86.9070727825165 7.42769331583743
86.9368080832064 7.46367199898344
86.9665433838964 7.43488905246663
86.9962786845863 7.31340808702069
87.0260139852762 7.22705924747027
87.0557492859662 7.10557828202433
87.0854845866561 7.11658352628076
87.115219887346 7.13520778579163
87.144955188036 6.99848878983679
87.1746904887259 6.99383272495908
87.2044257894158 7.00822419821748
87.2341610901058 6.87912421751709
87.2638963907957 6.94938846930812
87.2936316914856 6.89309241215025
87.3233669921756 6.73986554981077
87.3531022928655 6.70304030941427
87.3828375935555 6.70304030941427
87.4125728942454 6.7284370269291
87.4423081949353 6.66198228276529
87.4720434956253 6.66875474076924
87.5017787963152 6.63827867975145
87.5315140970051 6.64420458050491
87.5612493976951 6.61203540498612
87.590984698385 6.63489245074947
87.6207199990749 6.62431048511829
87.6504552997649 6.57986622946734
87.6801906004548 6.57732655771586
87.7099259011447 6.49944329067038
87.7396612018347 6.6010301607297
87.7693965025246 6.5409245959446
87.7991318032146 6.59341114547525
87.8288671039045 6.65605638201183
87.8586024045944 6.56081869133122
87.8883377052844 6.50833214180057
87.9180730059743 6.49648034029364
87.9478083066642 6.50833214180057
87.9775436073542 6.4664275579011
88.0072789080441 6.57944295084209
88.037014208734 6.49986656929562
88.066749509424 6.56759114933517
88.0964848101139 6.41436428699569
88.1262201108038 6.40166592823828
88.1559554114938 6.50452263417334
88.1856907121837 6.52822623718718
88.2154260128737 6.50790886317532
88.2451613135636 6.44780329839022
88.2748966142535 6.45288264189319
88.3046319149435 6.46600427927585
88.3343672156334 6.45161280601744
88.3641025163233 6.53753836694262
88.3938378170133 6.3830416687274
88.4235731177032 6.40970822211797
88.4533084183931 6.45372919914368
88.4830437190831 6.39150724123235
88.512779019773 6.4503429701417
88.5425143204629 6.44357051213775
88.5722496211529 6.44060756176102
88.6019849218428 6.4054754358655
88.6317202225327 6.49563378304315
88.6614555232227 6.44103084038627
88.6911908239126 6.49351738991691
88.7209261246026 6.44103084038627
88.7506614252925 6.49224755404117
88.7803967259824 6.43129543200558
88.8101320266724 6.52103050055798
88.8398673273623 6.32081971081607
88.8696026280522 6.42325313812588
88.8993379287422 6.37203642447098
88.9290732294321 6.39997281373729
88.958808530122 6.48208886703524
88.988543830812 6.42409969537638
89.0182791315019 6.4359514968833
89.0480144321918 6.41394100837045
89.0777497328818 6.37161314584573
89.1074850335717 6.3758459320982
89.1372203342617 6.37372953897196
89.1669556349516 6.38769773360512
89.1966909356415 6.4808190311595
89.2264262363315 6.39193051985759
89.2561615370214 6.35298888633485
89.2858968377113 6.32208954669181
89.3156321384013 6.39362363435858
89.3453674390912 6.34325347795417
89.3751027397811 6.33775085582595
89.4048380404711 6.52145377918323
89.434573341161 6.34917937870763
89.4643086418509 6.40251248548877
89.4940439425409 6.37838560384968
89.5237792432308 6.37330626034672
89.5535145439208 6.40124264961303
89.5832498446107 6.32420593981804
89.6129851453006 6.45923182127189
89.6427204459906 6.40124264961303
89.6724557466805 6.41605740149668
89.7021910473704 6.41478756562094
89.7319263480604 6.38007871835067
89.7616616487503 6.37034330996999
89.7913969494402 6.3902374053566
89.8211322501302 6.46473444340011
89.8508675508201 6.3076980734334
89.88060285151 6.35806822983782
89.9103381522 6.31320069556162
89.9400734528899 6.37457609622246
89.9698087535799 6.36738035959326
89.9995440542698 6.2861108635458
90.0292793549597 6.34367675657941
90.0590146556497 6.26790988266017
90.0887499563396 6.2789151269166
90.1184852570295 6.38896756948086
90.1482205577195 6.28230135591857
90.1779558584094 6.27849184829135
90.2076911590993 6.39574002748482
90.2374264597893 6.39193051985759
90.2671617604792 6.27722201241561
90.2968970611691 6.30685151618291
90.3266323618591 6.31531708868785
90.356367662549 6.29161348567401
90.386102963239 6.42917903887934
90.4158382639289 6.31447053143736
90.4455735646188 6.30092561542945
90.4753088653088 6.33775085582595
90.5050441659987 6.43933772588528
90.5347794666886 6.34452331382991
90.5645147673786 6.30600495893242
90.5942500680685 6.35637511533683
90.6239853687584 6.23701054301713
