'Id: "" Comment: "" Operator: "administrator" Anode: "Cu" Scantype: "locked coupled" TimePerStep: "113.4" 
30	4600.826
30.02	4709.478
30.04	4740.911
30.06	4511.834
30.08	4615.581
30.1	4474.132
30.12	4499.202
30.14	4626.689
30.16	4470.694
30.18	4635.147
30.2	4655.045
30.22	4613.236
30.24	4476.489
30.26	4527.112
30.28	4661.369
30.3	4587.185
30.32	4576.987
30.34	4663.261
30.36	4535.823
30.38	4488.049
30.4	4363.474
30.42	4457.354
30.44	4669.381
30.46	4567.813
30.48	4430.683
30.5	4319.562
30.52	4380.332
30.54	4325.92
30.56	4435.924
30.58	4454.824
30.6	4347.008
30.62	4445.599
30.64	4291.124
30.66	4334.556
30.68	4403.272
30.7	4380.298
30.72	4340.302
30.74	4389.402
30.76	4379.954
30.78	4306.848
30.8	4278.884
30.82	4197.509
30.84	4320.69
30.86	4423.397
30.88	4284.077
30.9	4362.162
30.92	4270.569
30.94	4355.143
30.96	4303.836
30.98	4141.556
31	4195.856
31.02	4213.19
31.04	4386.889
31.06	4223.464
31.08	4339.796
31.1	4265.458
31.12	4310.578
31.14	4255.601
31.16	4142.275
31.18	4196.57
31.2	4257.707
31.22	4268.743
31.24	4231.531
31.26	4117.722
31.28	4178.133
31.3	4247.319
31.32	4205.234
31.34	4161.865
31.36	4202.464
31.38	4119.654
31.4	4059.846
31.42	4254.791
31.44	4284.075
31.46	3972.062
31.48	4197.696
31.5	4175.724
31.52	4134.268
31.54	4101.566
31.56	4137.32
31.58	4013.497
31.6	4079.592
31.62	4143.833
31.64	3980.635
31.66	3997.316
31.68	4084.818
31.7	4079.83
31.72	4029.426
31.74	4145.594
31.76	4018.155
31.78	3924.556
31.8	4072.369
31.82	4034.56
31.84	4039.886
31.86	4012.856
31.88	3959.017
31.9	4021.326
31.92	4043.72
31.94	3984.367
31.96	3963.95
31.98	4102.574
32	3894.367
32.02	4096.173
32.04	3815.131
32.06	3874.682
32.08	4029.708
32.1	3981.845
32.12	3945.754
32.14	3823.152
32.16	3923.357
32.18	3921.594
32.2	4032.233
32.22	3978.832
32.24	3945.448
32.26	3904.329
32.28	3840.792
32.3	3915.294
32.32	3888.44
32.34	3784.952
32.36	3819.375
32.38	3850.139
32.4	3720.772
32.42	3882.464
32.44	3705.732
32.46	3710.202
32.48	3788.972
32.5	3780.756
32.52	3740.059
32.54	3851.368
32.56	3957.2
32.58	3891.775
32.6	3783.13
32.62	3781.677
32.64	3828.751
32.66	3723.596
32.68	3802.637
32.7	3676.88
32.72	3623.475
32.74	3715.392
32.76	3750.141
32.78	3792.844
32.8	3746.006
32.82	3714.109
32.84	3791.106
32.86	3730.478
32.88	3740.615
32.9	3535.227
32.92	3707.196
32.94	3665.749
32.96	3640.192
32.98	3647.237
33	3632.096
33.02	3636.564
33.04	3553.248
33.06	3620.739
33.08	3640.691
33.1	3650.965
33.12	3549.263
33.14	3587.059
33.16	3733.306
33.18	3519.037
33.2	3613
33.22	3404.599
33.24	3704.441
33.26	3453.605
33.28	3571.38
33.3	3626.434
33.32	3576.526
33.34	3571.36
33.36	3481.55
33.38	3408.385
33.4	3539.426
33.42	3574.241
33.44	3584.232
33.46	3476.376
33.48	3482.209
33.5	3566.64
33.52	3490.751
33.54	3428.903
33.56	3534.476
33.58	3536.207
33.6	3425.198
33.62	3470.418
33.64	3494.347
33.66	3399.186
33.68	3545.969
33.7	3455.967
33.72	3428.21
33.74	3414.365
33.76	3478.189
33.78	3464.405
33.8	3425.998
33.82	3457.131
33.84	3461.553
33.86	3431.142
33.88	3465.842
33.9	3401.444
33.92	3434.844
33.94	3436.617
33.96	3428.628
33.98	3327.772
34	3344.016
34.02	3386.454
34.04	3269.323
34.06	3363.153
34.08	3309.839
34.1	3404.866
34.12	3255.498
34.14	3281.812
34.16	3187.686
34.18	3311.311
34.2	3300.794
34.22	3326.785
34.24	3284.438
34.26	3351.248
34.28	3379.786
34.3	3271.216
34.32	3368.702
34.34	3385.115
34.36	3148.636
34.38	3222.844
34.4	3354.735
34.42	3357.719
34.44	3228.073
34.46	3228.126
34.48	3335.909
34.5	3252.527
34.52	3235.465
34.54	3152.029
34.56	3148.389
34.58	3178.987
34.6	3255.459
34.62	3275.848
34.64	3252.31
34.66	3301.419
34.68	3292.168
34.7	3249.637
34.72	3367.648
34.74	3440.979
34.76	3430.67
34.78	3495.79
34.8	3493.876
34.82	3554.377
34.84	3738.685
34.86	3826.659
34.88	4145.918
34.9	4456.346
34.92	4683.411
34.94	5204.254
34.96	5894.943
34.98	6714.173
35	7462.608
35.02	8113.688
35.04	8701.932
35.06	8460.837
35.08	8094.187
35.1	7449.86
35.12	6843.604
35.14	6280.106
35.16	5799.582
35.18	4979.154
35.2	4488.788
35.22	4082.61
35.24	3915.396
35.26	3494.815
35.28	3546.048
35.3	3470.377
35.32	3330.631
35.34	3184.834
35.36	3249.939
35.38	3182.038
35.4	3091.753
35.42	3138.565
35.44	3287.027
35.46	2934.05
35.48	3103.845
35.5	3055.745
35.52	2955.903
35.54	3099.312
35.56	2915.884
35.58	2859.875
35.6	3036.032
35.62	3009.659
35.64	3106.392
35.66	2991.115
35.68	3013.371
35.7	3072.177
35.72	2911.833
35.74	3064.08
35.76	2857.384
35.78	2810.83
35.8	2928.258
35.82	2924.728
35.84	2917.116
35.86	2960.388
35.88	2896.547
35.9	3002.658
35.92	2939.023
35.94	3053.034
35.96	2759.633
35.98	2818.66
36	2918.253
36.02	2912.438
36.04	2921.987
36.06	3017.851
36.08	2996.79
36.1	2969.448
36.12	2802.741
36.14	2782.054
36.16	2827.838
36.18	2802.439
36.2	2823.126
36.22	2878.709
36.24	2766.993
36.26	2776.312
36.28	2701.885
36.3	2847.638
36.32	2819.875
36.34	2735.755
36.36	2791.236
36.38	2726.879
36.4	2756.528
36.42	2750.135
36.44	2741.593
36.46	2736.384
36.48	2780.812
36.5	2662.695
36.52	2768.254
36.54	2662.842
36.56	2821.567
36.58	2853.441
36.6	2759.599
36.62	2665.799
36.64	2725.252
36.66	2685.608
36.68	2634.724
36.7	2723.424
36.72	2706.123
36.74	2790.167
36.76	2735.911
36.78	2694.123
36.8	2750.022
36.82	2644.765
36.84	2596.677
36.86	2659.648
36.88	2691.789
36.9	2752.929
36.92	2647.685
36.94	2762.673
36.96	2778.519
36.98	2672.074
37	2553.49
37.02	2742.109
37.04	2567.931
37.06	2732.661
37.08	2728.125
37.1	2668.314
37.12	2748.806
37.14	2702.484
37.16	2702.822
37.18	2741.631
37.2	2473.171
37.22	2703.146
37.24	2521.854
37.26	2604.039
37.28	2623.368
37.3	2642.235
37.32	2639.488
37.34	2530.78
37.36	2598.551
37.38	2689.963
37.4	2655.001
37.42	2596.472
37.44	2628.207
37.46	2623.748
37.48	2612.149
37.5	2627.528
37.52	2742.191
37.54	2482.123
37.56	2597.119
37.58	2549.629
37.6	2632.287
37.62	2594.525
37.64	2647.302
37.66	2700.788
37.68	2668.104
37.7	2597.439
37.72	2644.354
37.74	2603.253
37.76	2624.682
37.78	2672.663
37.8	2698.471
37.82	2712.064
37.84	2636.205
37.86	2556.444
37.88	2621.977
37.9	2562.15
37.92	2762.159
37.94	2748.097
37.96	2708.666
37.98	2629.121
38	2718.012
38.02	2628.736
38.04	2839.424
38.06	2877.398
38.08	2962.375
38.1	3028.271
38.12	3002.65
38.14	3215.262
38.16	3390.876
38.18	3405.986
38.2	3614.055
38.22	4135.017
38.24	4415.894
38.26	4937.444
38.28	5444.127
38.3	5978.807
38.32	5933.834
38.34	5385.27
38.36	5165.783
38.38	4990.388
38.4	4936.163
38.42	4757.582
38.44	4294.393
38.46	4056.766
38.48	3856.511
38.5	3713.154
38.52	3572.778
38.54	3489.446
38.56	3489.65
38.58	3656.432
38.6	3587.163
38.62	3653.3
38.64	3734.246
38.66	3789.115
38.68	3785.016
38.7	3791.618
38.72	3853.81
38.74	3835.934
38.76	3919.041
38.78	3792.878
38.8	3763.266
38.82	3726.767
38.84	3850.531
38.86	3751.862
38.88	3565.213
38.9	3521.866
38.92	3440.198
38.94	3430.635
38.96	3354.38
38.98	3240.369
39	3123.474
39.02	3050.445
39.04	3031.189
39.06	2935.257
39.08	3084.77
39.1	2837.08
39.12	2847.801
39.14	2838.797
39.16	2934.427
39.18	2783.038
39.2	2756.437
39.22	2731.813
39.24	2656.054
39.26	2616.583
39.28	2753.079
39.3	2721.925
39.32	2727.495
39.34	2712.323
39.36	2579.14
39.38	2667.355
39.4	2795.44
39.42	2793.832
39.44	2765.337
39.46	2671.976
39.48	2663.763
39.5	2773.939
39.52	2668.995
39.54	2756.554
39.56	2685.919
39.58	2695.773
39.6	2761.438
39.62	2883.972
39.64	2845.347
39.66	2890.451
39.68	3052.483
39.7	3124.681
39.72	3129.783
39.74	3274.37
39.76	3488.063
39.78	3682.115
39.8	3858.956
39.82	4196.373
39.84	4513.06
39.86	5081.935
39.88	5664.247
39.9	6449.73
39.92	7459.977
39.94	8835.755
39.96	10539.28
39.98	12888.02
40	15892.6
40.02	19834.32
40.04	24760.69
40.06	30188.02
40.08	34743.97
40.1	36950.12
40.12	34980.69
40.14	31741.6
40.16	27896.31
40.18	25133.98
40.2	22769.9
40.22	20278.19
40.24	16369.63
40.26	12552.62
40.28	9295.196
40.3	7431.833
40.32	6140.182
40.34	5325.907
40.36	4588.327
40.38	4151.908
40.4	3732.141
40.42	3550.16
40.44	3376.683
40.46	3159.756
40.48	3137.191
40.5	2903.188
40.52	2839.812
40.54	2814.128
40.56	2768.117
40.58	2762.658
40.6	2615.731
40.62	2673.39
40.64	2546.98
40.66	2596.173
40.68	2480.895
40.7	2547.616
40.72	2436.523
40.74	2480.657
40.76	2396.884
40.78	2458.702
40.8	2510.474
40.82	2365.7
40.84	2261.834
40.86	2406.931
40.88	2383.154
40.9	2256.647
40.92	2385.261
40.94	2294.563
40.96	2363.972
40.98	2392.806
41	2301.824
41.02	2314.218
41.04	2310.15
41.06	2225.289
41.08	2284.744
41.1	2274.608
41.12	2243.423
41.14	2211.205
41.16	2129.733
41.18	2277.405
41.2	2347.688
41.22	2197.845
41.24	2069.865
41.26	2239.908
41.28	2230.832
41.3	2247.635
41.32	2146.09
41.34	2248.209
41.36	2229.969
41.38	2151.674
41.4	2250.17
41.42	2198.59
41.44	2128.98
41.46	2202.615
41.48	2155.869
41.5	2150.34
41.52	2143.823
41.54	2076.719
41.56	2096
41.58	2246.053
41.6	2157.252
41.62	2249.238
41.64	2120.03
41.66	2158.618
41.68	2105.075
41.7	2081.381
41.72	2190.356
41.74	2112.652
41.76	2120.016
41.78	2068.761
41.8	2161.5
41.82	2110.631
41.84	2148.736
41.86	2112.76
41.88	2113.835
41.9	1983.679
41.92	2170.47
41.94	2084.198
41.96	2068.177
41.98	2072.047
42	2077.317
42.02	2187.684
42.04	2003.922
42.06	2139.674
42.08	2129.489
42.1	2019.157
42.12	2132.915
42.14	2113.66
42.16	2086.048
42.18	2103.65
42.2	2057.584
42.22	2093.583
42.24	2107.55
42.26	2016.513
42.28	2059.982
42.3	1988.405
42.32	2076.337
42.34	2042.233
42.36	2051.361
42.38	2012.927
42.4	1957.699
42.42	1973.891
42.44	2005.078
42.46	2063.274
42.48	2147.592
42.5	1995.54
42.52	2028.763
42.54	2036.908
42.56	2005.509
42.58	2035.649
42.6	2037.342
42.62	2046.266
42.64	2037.201
42.66	1930.079
42.68	1930.556
42.7	1954.421
42.72	1915.436
42.74	2085.548
42.76	2025.248
42.78	2008.988
42.8	2102.389
42.82	2032.75
42.84	1940.648
42.86	2012.533
42.88	2066.148
42.9	2026.875
42.92	2048.929
42.94	1996.887
42.96	1961.435
42.98	1897.141
43	1852.454
43.02	1914.282
43.04	2006.506
43.06	1928.699
43.08	1908.693
43.1	1946.298
43.12	2088.979
43.14	1970.141
43.16	1952.716
43.18	1892.938
43.2	1899.845
43.22	1929.275
43.24	1912.02
43.26	1995.371
43.28	1940.565
43.3	1943.915
43.32	1964.661
43.34	1894.738
43.36	1903.006
43.38	1881.401
43.4	1937.064
43.42	1878.204
43.44	1911.132
43.46	1967.529
43.48	1906.892
43.5	1865.128
43.52	1884.235
43.54	1925.292
43.56	1821.673
43.58	1872.898
43.6	1866.321
43.62	2015.755
43.64	1903.398
43.66	1836.541
43.68	1860.843
43.7	1865.108
43.72	1979.387
43.74	1817.389
43.76	1905.807
43.78	1921.066
43.8	1846.929
43.82	2009.534
43.84	2005.276
43.86	1868.239
43.88	1889.819
43.9	1859.955
43.92	1984.388
43.94	1917.062
43.96	1804.397
43.98	1923.398
44	1865.507
44.02	1912.669
44.04	1852.496
44.06	1915.56
44.08	1889.691
44.1	1808.671
44.12	1921.89
44.14	1941.843
44.16	1874.764
44.18	1962.238
44.2	1928.78
44.22	1933.256
44.24	1903.237
44.26	1768.955
44.28	1862.416
44.3	1852.651
44.32	1901.697
44.34	1888.619
44.36	1931.226
44.38	1879.841
44.4	1935.544
44.42	1880.917
44.44	1847.266
44.46	1856.347
44.48	1973.667
44.5	1869.853
44.52	1886.632
44.54	1998.326
44.56	1815.81
44.58	1820.219
44.6	1696.372
44.62	1799.477
44.64	1898.168
44.66	1788.828
44.68	1812.313
44.7	1841.888
44.72	1903.694
44.74	1891.146
44.76	1805.023
44.78	1763.401
44.8	1735.646
44.82	1758.65
44.84	1767.514
44.86	1779.729
44.88	1819.143
44.9	1854.067
44.92	1871.119
44.94	1737.715
44.96	1694.902
44.98	1754.943
45	1760.108
45.02	1775.41
45.04	1752.592
45.06	1830.136
45.08	1735.272
45.1	1843.653
45.12	1767.239
45.14	1751.407
45.16	1879.326
45.18	1732.172
45.2	1688.139
45.22	1752.716
45.24	1879.51
45.26	1803.835
45.28	1844.334
45.3	1882.622
45.32	1762.23
45.34	1773.299
45.36	1800.015
45.38	1789.698
45.4	1807.583
45.42	1788.388
45.44	1743.501
45.46	1781.088
45.48	1704.836
45.5	1681.228
45.52	1737.271
45.54	1789.968
45.56	1742.829
45.58	1738.366
45.6	1869.594
45.62	1690.032
45.64	1735.454
45.66	1713.296
45.68	1781.766
45.7	1834.18
45.72	1763.289
45.74	1695.657
45.76	1643.3
45.78	1868.798
45.8	1599.962
45.82	1693.287
45.84	1811.742
45.86	1749.45
45.88	1693.943
45.9	1658.138
45.92	1810.825
45.94	1683.5
45.96	1713.124
45.98	1695.431
46	1730.13
46.02	1723.823
46.04	1770.959
46.06	1783.161
46.08	1768.356
46.1	1716.87
46.12	1722.122
46.14	1664.513
46.16	1775.73
46.18	1703.537
46.2	1667.695
46.22	1709.188
46.24	1788.582
46.26	1657.679
46.28	1725.567
46.3	1727.78
46.32	1737.871
46.34	1747.874
46.36	1753.986
46.38	1712.283
46.4	1726.552
46.42	1698.002
46.44	1624.486
46.46	1684.162
46.48	1722.438
46.5	1657.614
46.52	1598.715
46.54	1689.798
46.56	1757.542
46.58	1736.145
46.6	1655.501
46.62	1640.205
46.64	1640.894
46.66	1707.316
46.68	1739.583
46.7	1678.246
46.72	1647.864
46.74	1654.711
46.76	1644.555
46.78	1625.681
46.8	1675.884
46.82	1588.244
46.84	1683.139
46.86	1691.052
46.88	1700.978
46.9	1629.006
46.92	1725.546
46.94	1638.946
46.96	1575.836
46.98	1630.845
47	1725.243
47.02	1633.592
47.04	1679.819
47.06	1639.716
47.08	1650.628
47.1	1596.759
47.12	1718.2
47.14	1612.107
47.16	1681.398
47.18	1586.66
47.2	1665.178
47.22	1559.368
47.24	1629.512
47.26	1641.578
47.28	1546.399
47.3	1631.517
47.32	1598.841
47.34	1619.289
47.36	1587.612
47.38	1618.009
47.4	1719.141
47.42	1642.186
47.44	1662.068
47.46	1576.998
47.48	1670.854
47.5	1676.454
47.52	1645.293
47.54	1603.459
47.56	1664.079
47.58	1549.321
47.6	1708.371
47.62	1639.303
47.64	1602.462
47.66	1612.514
47.68	1539.391
47.7	1643.712
47.72	1597.383
47.74	1668.362
47.76	1585.534
47.78	1589.523
47.8	1546.51
47.82	1624.715
47.84	1519.788
47.86	1569.669
47.88	1549.962
47.9	1648.528
47.92	1607.922
47.94	1593.136
47.96	1589.901
47.98	1521.291
48	1611.325
48.02	1626.53
48.04	1629.712
48.06	1564.19
48.08	1574.782
48.1	1618.551
48.12	1486.869
48.14	1603.869
48.16	1528.303
48.18	1635.369
48.2	1549.339
48.22	1596.084
48.24	1614.555
48.26	1614.649
48.28	1541.392
48.3	1719.913
48.32	1656.311
48.34	1569.682
48.36	1561.184
48.38	1593.023
48.4	1460.141
48.42	1554.852
48.44	1502.91
48.46	1633.603
48.48	1522.741
48.5	1582.576
48.52	1641.093
48.54	1607.217
48.56	1621.747
48.58	1657.379
48.6	1616
48.62	1537.132
48.64	1596.757
48.66	1523.336
48.68	1557.613
48.7	1501.537
48.72	1485.302
48.74	1562.339
48.76	1494.315
48.78	1614.075
48.8	1589.652
48.82	1489.133
48.84	1567.136
48.86	1600.189
48.88	1596.761
48.9	1552.91
48.92	1640.01
48.94	1450.419
48.96	1527.58
48.98	1532.635
49	1519.585
49.02	1557.837
49.04	1601.893
49.06	1549.086
49.08	1586.264
49.1	1584.275
49.12	1577.708
49.14	1578.968
49.16	1566.408
49.18	1564.949
49.2	1495.82
49.22	1507.908
49.24	1487.275
49.26	1454.844
49.28	1559.764
49.3	1514.585
49.32	1475.862
49.34	1608.039
49.36	1603.162
49.38	1592.515
49.4	1540.474
49.42	1539.831
49.44	1538.247
49.46	1522.954
49.48	1521.793
49.5	1553.068
49.52	1470.755
49.54	1517.062
49.56	1555.142
49.58	1569.221
49.6	1522.185
49.62	1484.972
49.64	1574.265
49.66	1545.362
49.68	1539.635
49.7	1520.277
49.72	1562.322
49.74	1576.343
49.76	1559.478
49.78	1484.996
49.8	1462.901
49.82	1616.211
49.84	1526.348
49.86	1499.339
49.88	1565.097
49.9	1544.794
49.92	1512.343
49.94	1530.294
49.96	1559.654
49.98	1506.487
50	1513.984
50.02	1446.412
50.04	1583.236
50.06	1436.999
50.08	1509.655
50.1	1469.28
50.12	1447.513
50.14	1500.032
50.16	1515.698
50.18	1547.29
50.2	1544.876
50.22	1504.314
50.24	1552.761
50.26	1420.845
50.28	1431.125
50.3	1438.91
50.32	1408.423
50.34	1526.94
50.36	1533.057
50.38	1527.24
50.4	1457.351
50.42	1507.16
50.44	1508.358
50.46	1511.404
50.48	1563.918
50.5	1604.471
50.52	1484.437
50.54	1543.131
50.56	1469.609
50.58	1587.763
50.6	1447.851
50.62	1461.545
50.64	1513.22
50.66	1476.449
50.68	1496.01
50.7	1565.104
50.72	1429.734
50.74	1470.465
50.76	1507.468
50.78	1540.624
50.8	1411.922
50.82	1498.24
50.84	1528.065
50.86	1602.416
50.88	1481.461
50.9	1525.589
50.92	1605.197
50.94	1462.661
50.96	1500.705
50.98	1509.442
51	1520.998
51.02	1488.964
51.04	1498.681
51.06	1549.299
51.08	1421.362
51.1	1490.854
51.12	1511.515
51.14	1538.897
51.16	1477.387
51.18	1488.994
51.2	1480.991
51.22	1504.964
51.24	1483.444
51.26	1489.884
51.28	1534.151
51.3	1467.845
51.32	1508.958
51.34	1566.116
51.36	1501.993
51.38	1573.868
51.4	1569.587
51.42	1458.827
51.44	1483.741
51.46	1506.203
51.48	1536.382
51.5	1488.089
51.52	1512.989
51.54	1436.99
51.56	1517.208
51.58	1430.591
51.6	1454.078
51.62	1492.326
51.64	1539.07
51.66	1455.59
51.68	1502.703
51.7	1484.355
51.72	1468.3
51.74	1506.122
51.76	1498.987
51.78	1549.663
51.8	1521.037
51.82	1515.318
51.84	1457.151
51.86	1506.327
51.88	1528.752
51.9	1569.176
51.92	1450.234
51.94	1480.684
51.96	1530.706
51.98	1541.452
52	1576.854
52.02	1585.474
52.04	1440.023
52.06	1474.717
52.08	1430.895
52.1	1485.268
52.12	1482.239
52.14	1434.792
52.16	1549.75
52.18	1608.227
52.2	1435.178
52.22	1482.489
52.24	1450.391
52.26	1467.217
52.28	1527.83
52.3	1474.593
52.32	1603.058
52.34	1659.628
52.36	1594.91
52.38	1561.229
52.4	1602.082
52.42	1669.178
52.44	1598.15
52.46	1642.817
52.48	1626.231
52.5	1664.176
52.52	1727.687
52.54	1772.352
52.56	1864.537
52.58	1800.997
52.6	1959.557
52.62	1953.87
52.64	2127.554
52.66	2264.078
52.68	2569.84
52.7	2689.113
52.72	2977.858
52.74	3409.722
52.76	3725.935
52.78	4485.836
52.8	5316.464
52.82	6252.664
52.84	7297.367
52.86	8282.549
52.88	9229.152
52.9	9207.086
52.92	8643.176
52.94	7770.479
52.96	6769.953
52.98	6215.185
53	5971.118
53.02	5732.451
53.04	5551.062
53.06	5053.561
53.08	4292.728
53.1	3670.977
53.12	2865.748
53.14	2500.521
53.16	2357.058
53.18	2035.818
53.2	1913.132
53.22	1862.766
53.24	1838.045
53.26	1763.049
53.28	1695.376
53.3	1742.272
53.32	1618.254
53.34	1595.461
53.36	1614.748
53.38	1618.483
53.4	1624.053
53.42	1578.3
53.44	1516.947
53.46	1544.408
53.48	1536.608
53.5	1492.827
53.52	1437.887
53.54	1491.487
53.56	1504.651
53.58	1475.317
53.6	1472.474
53.62	1488.123
53.64	1484.491
53.66	1469.479
53.68	1497.915
53.7	1507.402
53.72	1540.511
53.74	1507.787
53.76	1491.373
53.78	1485.427
53.8	1505.589
53.82	1417.58
53.84	1476.96
53.86	1465.88
53.88	1464.927
53.9	1515.976
53.92	1469.232
53.94	1423.333
53.96	1487.137
53.98	1449.15
54	1446.846
54.02	1426.597
54.04	1474.177
54.06	1452.535
54.08	1515.049
54.1	1448.631
54.12	1395.347
54.14	1492.454
54.16	1434.51
54.18	1363.921
54.2	1405.096
54.22	1442.76
54.24	1334.104
54.26	1464.607
54.28	1400.937
54.3	1439.433
54.32	1363.277
54.34	1472.976
54.36	1469.177
54.38	1497.408
54.4	1486.08
54.42	1362.493
54.44	1492.329
54.46	1459.151
54.48	1463.875
54.5	1485.496
54.52	1424.013
54.54	1451.645
54.56	1472.43
54.58	1440.856
54.6	1475.529
54.62	1425.397
54.64	1439.198
54.66	1483.754
54.68	1390.022
54.7	1497.507
54.72	1530.438
54.74	1433.711
54.76	1415.037
54.78	1473.915
54.8	1568.824
54.82	1414.515
54.84	1431.213
54.86	1494.454
54.88	1454.918
54.9	1407.335
54.92	1484.866
54.94	1493.679
54.96	1518.074
54.98	1514.147
55	1514.899
55.02	1459.833
55.04	1549.363
55.06	1531.775
55.08	1422.638
55.1	1528.334
55.12	1510.441
55.14	1459.091
55.16	1532.998
55.18	1584.637
55.2	1509.481
55.22	1554.243
55.24	1584.2
55.26	1570.886
55.28	1657.2
55.3	1549.575
55.32	1585.011
55.34	1585.65
55.36	1617.577
55.38	1619.298
55.4	1553.315
55.42	1698.161
55.44	1582.683
55.46	1715.494
55.48	1597.66
55.5	1593.477
55.52	1777.545
55.54	1660.153
55.56	1618.113
55.58	1680.741
55.6	1737.666
55.62	1691.231
55.64	1729.501
55.66	1732.221
55.68	1724.217
55.7	1727.323
55.72	1735.564
55.74	1778.881
55.76	1800.459
55.78	1797.447
55.8	1827.908
55.82	1935.013
55.84	1871.984
55.86	1859.988
55.88	1871.654
55.9	1933.192
55.92	1913.584
55.94	2003.253
55.96	1889.563
55.98	1963.411
56	1994.57
56.02	1901.132
56.04	1861.978
56.06	1952.689
56.08	1961.572
56.1	1837.128
56.12	1848.772
56.14	1795.858
56.16	1772.654
56.18	1904.717
56.2	1717.233
56.22	1784.703
56.24	1743.995
56.26	1678.166
56.28	1714.529
56.3	1639.729
56.32	1622.511
56.34	1582.02
56.36	1620.439
56.38	1614.628
56.4	1554.597
56.42	1408.869
56.44	1503.608
56.46	1484.813
56.48	1535.481
56.5	1475.998
56.52	1413.187
56.54	1515.926
56.56	1486.542
56.58	1441.46
56.6	1467.021
56.62	1532.897
56.64	1489.569
56.66	1520.206
56.68	1421.339
56.7	1481.04
56.72	1438.681
56.74	1468.563
56.76	1390.896
56.78	1342.402
56.8	1297.938
56.82	1518.356
56.84	1506.461
56.86	1436.667
56.88	1415.925
56.9	1384.216
56.92	1440.957
56.94	1379.831
56.96	1409.339
56.98	1424.753
57	1484.646
57.02	1442.57
57.04	1351.353
57.06	1424.435
57.08	1358.464
57.1	1406.399
57.12	1374.109
57.14	1397.266
57.16	1374.99
57.18	1375.996
57.2	1379.672
57.22	1416.661
57.24	1356.639
57.26	1331.646
57.28	1316.941
57.3	1310.359
57.32	1371.885
57.34	1324.257
57.36	1365.561
57.38	1380.601
57.4	1379.355
57.42	1319.754
57.44	1364.099
57.46	1362.757
57.48	1369.43
57.5	1351.098
57.52	1456.711
57.54	1277.939
57.56	1364.747
57.58	1435.493
57.6	1411.336
57.62	1350.406
57.64	1320.368
57.66	1347.168
57.68	1329.651
57.7	1298.628
57.72	1404.348
57.74	1401.08
57.76	1414.697
57.78	1330.053
57.8	1384.813
57.82	1363.363
57.84	1367.139
57.86	1388.928
57.88	1346.295
57.9	1308.328
57.92	1337.928
57.94	1366.146
57.96	1384.181
57.98	1400.241
58	1345.021
58.02	1342.753
58.04	1357.51
58.06	1252.436
58.08	1358.248
58.1	1336.521
58.12	1412.225
58.14	1386.017
58.16	1362.45
58.18	1303.436
58.2	1351.014
58.22	1365.141
58.24	1386.462
58.26	1355.769
58.28	1288.153
58.3	1375.006
58.32	1325.939
58.34	1409.723
58.36	1347.648
58.38	1352.595
58.4	1288.239
58.42	1304.48
58.44	1296.528
58.46	1369.25
58.48	1415.477
58.5	1370.564
58.52	1318.849
58.54	1402.775
58.56	1377.649
58.58	1311.994
58.6	1432.885
58.62	1374.959
58.64	1358.559
58.66	1342.791
58.68	1359.049
58.7	1349.593
58.72	1287.202
58.74	1322.952
58.76	1408.723
58.78	1354.02
58.8	1335.721
58.82	1271.964
58.84	1350.486
58.86	1348.357
58.88	1322.084
58.9	1308.365
58.92	1335.858
58.94	1316.466
58.96	1432.598
58.98	1345.176
59	1339.635
59.02	1303.282
59.04	1291.041
59.06	1286.875
59.08	1247.345
59.1	1307.16
59.12	1295.26
59.14	1268.142
59.16	1330.852
59.18	1327.46
59.2	1286.013
59.22	1260.617
59.24	1275.833
59.26	1349.658
59.28	1331.709
59.3	1306.053
59.32	1262.952
59.34	1313.597
59.36	1284.629
59.38	1323.788
59.4	1310.972
59.42	1301.852
59.44	1280.73
59.46	1287.869
59.48	1285.815
59.5	1355.466
59.52	1384.6
59.54	1272.797
59.56	1307.65
59.58	1332.922
59.6	1346.121
59.62	1374.806
59.64	1266.438
59.66	1279.802
59.68	1321.352
59.7	1409.839
59.72	1273.852
59.74	1365.579
59.76	1281.886
59.78	1302.734
59.8	1350.81
59.82	1301.035
59.84	1389.939
59.86	1361.444
59.88	1291.274
59.9	1281.343
59.92	1439.879
59.94	1269.394
59.96	1374.249
59.98	1321.134
60	1304.684
60.02	1338.903
60.04	1281.932
60.06	1264.916
60.08	1308.16
60.1	1334.151
60.12	1358.517
60.14	1318.433
60.16	1373.307
60.18	1358.791
60.2	1348.881
60.22	1298.615
60.24	1307.421
60.26	1332.437
60.28	1306.396
60.3	1256.586
60.32	1280.236
60.34	1340.077
60.36	1344.935
60.38	1314.366
60.4	1308.272
60.42	1358.815
60.44	1354.159
60.46	1272.248
60.48	1218.342
60.5	1301.022
60.52	1286.58
60.54	1376.25
60.56	1306.09
60.58	1312.774
60.6	1404.939
60.62	1348.477
60.64	1348.079
60.66	1315.246
60.68	1295.381
60.7	1302.808
60.72	1299.8
60.74	1328.55
60.76	1321.487
60.78	1353.982
60.8	1317.49
60.82	1241.386
60.84	1311.238
60.86	1373.141
60.88	1401.375
60.9	1354.224
60.92	1411.236
60.94	1295.781
60.96	1331.386
60.98	1317.166
61	1359.412
61.02	1285.796
61.04	1267.841
61.06	1335.931
61.08	1308.602
61.1	1311.277
61.12	1345.726
61.14	1324.923
61.16	1279.522
61.18	1206.371
61.2	1348.289
61.22	1305.81
61.24	1322.375
61.26	1351.913
61.28	1337.157
61.3	1287.916
61.32	1227.46
61.34	1296.505
61.36	1268.844
61.38	1266.422
61.4	1372.706
61.42	1319.928
61.44	1304.308
61.46	1256.928
61.48	1289.049
61.5	1381.253
61.52	1261.311
61.54	1271.757
61.56	1358.916
61.58	1371.363
61.6	1274.473
61.62	1315.046
61.64	1308.916
61.66	1318.167
61.68	1362.691
61.7	1352.888
61.72	1340.177
61.74	1259.391
61.76	1356.201
61.78	1347.076
61.8	1329.208
61.82	1309.273
61.84	1308.291
61.86	1318.551
61.88	1235.425
61.9	1304.95
61.92	1336.454
61.94	1311.176
61.96	1368.265
61.98	1386.853
62	1345.181
62.02	1375.793
62.04	1403.049
62.06	1341.66
62.08	1452.038
62.1	1464.8
62.12	1434.753
62.14	1327.323
62.16	1346.882
62.18	1358.95
62.2	1446.399
62.22	1366.148
62.24	1329.189
62.26	1369.605
62.28	1351.432
62.3	1414.268
62.32	1474.859
62.34	1465.194
62.36	1479.96
62.38	1461.796
62.4	1467.396
62.42	1585.013
62.44	1562.812
62.46	1581.508
62.48	1632.397
62.5	1639.657
62.52	1804.256
62.54	1738.978
62.56	1906.05
62.58	1991.317
62.6	1977.381
62.62	2100.2
62.64	2249.84
62.66	2502.735
62.68	2778.401
62.7	2920.347
62.72	3130.34
62.74	3450.491
62.76	3880.629
62.78	4210.044
62.8	4718.36
62.82	5470.604
62.84	6174.045
62.86	6897.168
62.88	7349.509
62.9	7572.664
62.92	7049.884
62.94	6342.688
62.96	5624.18
62.98	5061.927
63	4759.44
63.02	4667.737
63.04	4440.18
63.06	4611.653
63.08	4432.209
63.1	4058.892
63.12	3390.241
63.14	3060.187
63.16	2533.351
63.18	2310.676
63.2	2008.207
63.22	1830.613
63.24	1798.68
63.26	1715.536
63.28	1550.612
63.3	1513.478
63.32	1474.442
63.34	1538.993
63.36	1526.312
63.38	1437.041
63.4	1443.658
63.42	1414.815
63.44	1450.419
63.46	1406.789
63.48	1483.235
63.5	1436.302
63.52	1360.863
63.54	1308.424
63.56	1433.634
63.58	1336.372
63.6	1318.778
63.62	1321.903
63.64	1225.678
63.66	1347.75
63.68	1339.359
63.7	1350.62
63.72	1369.287
63.74	1363.626
63.76	1283.669
63.78	1330.813
63.8	1318.618
63.82	1305.399
63.84	1316.985
63.86	1295.839
63.88	1327.953
63.9	1278.75
63.92	1272.791
63.94	1341.552
63.96	1311.664
63.98	1332.987
64	1331.059
64.02	1328.212
64.04	1277.255
64.06	1242.092
64.08	1330.366
64.1	1358.76
64.12	1185.321
64.14	1266.353
64.16	1304.593
64.18	1292.499
64.2	1312.549
64.22	1329.726
64.24	1315.589
64.26	1285.506
64.28	1382.413
64.3	1372.714
64.32	1286.922
64.34	1340.581
64.36	1282.074
64.38	1279.713
64.4	1239.674
64.42	1289.787
64.44	1366.15
64.46	1252.553
64.48	1328.162
64.5	1273.126
64.52	1314.157
64.54	1352.343
64.56	1274.458
64.58	1275.704
64.6	1261.835
64.62	1347.962
64.64	1310.508
64.66	1267.514
64.68	1316.635
64.7	1287.62
64.72	1326.978
64.74	1291.392
64.76	1258.02
64.78	1339.913
64.8	1237.017
64.82	1236.974
64.84	1218.818
64.86	1240.483
64.88	1226.243
64.9	1266.668
64.92	1323.625
64.94	1279.357
64.96	1246.685
64.98	1325.215
65	1293.619
65.02	1316.454
65.04	1203.618
65.06	1296.262
65.08	1262.199
65.1	1274.72
65.12	1305.575
65.14	1258.593
65.16	1258.719
65.18	1233.099
65.2	1248.776
65.22	1280.409
65.24	1252.899
65.26	1231.179
65.28	1239.568
65.3	1217.682
65.32	1234.163
65.34	1280.258
65.36	1230.525
65.38	1187.103
65.4	1257.715
65.42	1190.985
65.44	1253.451
65.46	1293.356
65.48	1257.402
65.5	1208.92
65.52	1253.197
65.54	1182.839
65.56	1226.492
65.58	1206.691
65.6	1238.65
65.62	1218.677
65.64	1216.538
65.66	1299.888
65.68	1238.06
65.7	1318.125
65.72	1348.247
65.74	1166.509
65.76	1219.086
65.78	1311.21
65.8	1313.922
65.82	1314.93
65.84	1261.841
65.86	1308.419
65.88	1231.942
65.9	1276.946
65.92	1244.015
65.94	1265.352
65.96	1256.684
65.98	1244.322
66	1194.645
66.02	1258.568
66.04	1236.173
66.06	1216.106
66.08	1267.397
66.1	1271.784
66.12	1176.532
66.14	1153.58
66.16	1200.212
66.18	1327.005
66.2	1231.811
66.22	1268.457
66.24	1233.424
66.26	1256.089
66.28	1271.918
66.3	1264.475
66.32	1204.946
66.34	1198.773
66.36	1281.403
66.38	1231.361
66.4	1152.034
66.42	1231.174
66.44	1235.271
66.46	1227.377
66.48	1221.85
66.5	1170.175
66.52	1237.631
66.54	1268.261
66.56	1191.615
66.58	1218.338
66.6	1265.523
66.62	1261.706
66.64	1233.767
66.66	1241.263
66.68	1248.811
66.7	1233.88
66.72	1205.194
66.74	1243.727
66.76	1226.916
66.78	1260.177
66.8	1204.507
66.82	1215.013
66.84	1242.398
66.86	1282.339
66.88	1273.756
66.9	1297.617
66.92	1263.623
66.94	1235.857
66.96	1287.854
66.98	1220.222
67	1162.238
67.02	1211.166
67.04	1254.743
67.06	1287.997
67.08	1250.195
67.1	1172.705
67.12	1240.347
67.14	1237.229
67.16	1299.738
67.18	1200.237
67.2	1187.292
67.22	1262.726
67.24	1177.536
67.26	1263.875
67.28	1227.078
67.3	1184.937
67.32	1198.712
67.34	1263.484
67.36	1187.109
67.38	1299.545
67.4	1231.63
67.42	1252.082
67.44	1172.871
67.46	1230.228
67.48	1247.154
67.5	1213.678
67.52	1191.777
67.54	1222.549
67.56	1214.249
67.58	1231.888
67.6	1246.49
67.62	1230.565
67.64	1228.669
67.66	1201.293
67.68	1221.083
67.7	1267.781
67.72	1259.398
67.74	1205.204
67.76	1190.606
67.78	1185.398
67.8	1161.561
67.82	1229.07
67.84	1209.311
67.86	1235.194
67.88	1246.418
67.9	1244.295
67.92	1234.157
67.94	1189.362
67.96	1243.855
67.98	1247.31
68	1284.748
68.02	1268.753
68.04	1258.304
68.06	1241.985
68.08	1204.07
68.1	1298.715
68.12	1209.442
68.14	1185.23
68.16	1275.509
68.18	1302.358
68.2	1260.711
68.22	1261.803
68.24	1210.031
68.26	1309.725
68.28	1252.785
68.3	1202.482
68.32	1244.098
68.34	1265.168
68.36	1251.024
68.38	1202.374
68.4	1240.062
68.42	1252.511
68.44	1202.272
68.46	1271.219
68.48	1284.714
68.5	1182.05
68.52	1251.838
68.54	1232.769
68.56	1242.78
68.58	1283.475
68.6	1213.635
68.62	1178.735
68.64	1310.736
68.66	1290.794
68.68	1279.946
68.7	1266.585
68.72	1246.892
68.74	1275.857
68.76	1223.192
68.78	1248.554
68.8	1286.404
68.82	1279.866
68.84	1213.561
68.86	1183.215
68.88	1253.889
68.9	1249.986
68.92	1313.101
68.94	1271.351
68.96	1215.866
68.98	1260.473
69	1288.948
69.02	1261.675
69.04	1298.709
69.06	1237.905
69.08	1271.899
69.1	1283.704
69.12	1262.817
69.14	1331.108
69.16	1339.218
69.18	1289.928
69.2	1277.101
69.22	1301.444
69.24	1296.128
69.26	1306.87
69.28	1269.871
69.3	1280.57
69.32	1271.083
69.34	1312.181
69.36	1305.615
69.38	1379.671
69.4	1351.527
69.42	1401.643
69.44	1358.644
69.46	1393.019
69.48	1451.931
69.5	1424.278
69.52	1375.43
69.54	1446.103
69.56	1364.275
69.58	1414.873
69.6	1413.579
69.62	1376.822
69.64	1444.2
69.66	1429.424
69.68	1500.513
69.7	1429.12
69.72	1397.778
69.74	1530.225
69.76	1486.291
69.78	1642.692
69.8	1588.757
69.82	1580.168
69.84	1628.113
69.86	1567.568
69.88	1590.743
69.9	1645.213
69.92	1749.595
69.94	1791.872
69.96	1756.892
69.98	1736.492
70	1818.447
70.02	1924.231
70.04	1954.031
70.06	1990.424
70.08	1942.042
70.1	2073.347
70.12	2082.845
70.14	2209.392
70.16	2371.95
70.18	2356.216
70.2	2503.322
70.22	2776.585
70.24	2906.8
70.26	3132.251
70.28	3449.787
70.3	3701.939
70.32	4296.763
70.34	4715.563
70.36	5259.427
70.38	5968.225
70.4	6437.673
70.42	7125.523
70.44	7646.938
70.46	8223.377
70.48	8554.111
70.5	8400.677
70.52	8207.176
70.54	7568.72
70.56	6526.261
70.58	5876.239
70.6	5609.625
70.62	5584.062
70.64	5251.515
70.66	5305.738
70.68	5123.847
70.7	4848.275
70.72	4655.335
70.74	4041.436
70.76	3328.227
70.78	2996.899
70.8	2513.316
70.82	2276.003
70.84	2055.382
70.86	1949.243
70.88	1867.245
70.9	1773.348
70.92	1640.382
70.94	1572.392
70.96	1554.152
70.98	1546.231
71	1408.382
71.02	1456.042
71.04	1436.322
71.06	1347.591
71.08	1365.778
71.1	1401.042
71.12	1317.793
71.14	1345.927
71.16	1386.763
71.18	1367.223
71.2	1399.26
71.22	1289.536
71.24	1392.207
71.26	1320.999
71.28	1367.037
71.3	1195.831
71.32	1285.319
71.34	1275.721
71.36	1235.076
71.38	1242.102
71.4	1252.94
71.42	1247.778
71.44	1195.408
71.46	1228.223
71.48	1216.546
71.5	1106.26
71.52	1236.438
71.54	1192.76
71.56	1208.192
71.58	1192.538
71.6	1261.097
71.62	1230.599
71.64	1166.679
71.66	1180.795
71.68	1265.234
71.7	1260.185
71.72	1168.034
71.74	1101.145
71.76	1173.113
71.78	1167.019
71.8	1188.648
71.82	1167.107
71.84	1203.763
71.86	1194.942
71.88	1138.074
71.9	1127.325
71.92	1183.483
71.94	1182.747
71.96	1127.258
71.98	1186.879
72	1129.58
72.02	1174.776
72.04	1193.641
72.06	1159.754
72.08	1213.337
72.1	1155.651
72.12	1194.778
72.14	1135.373
72.16	1076.546
72.18	1094.667
72.2	1142.151
72.22	1197.982
72.24	1210.605
72.26	1115.972
72.28	1175.011
72.3	1161.213
72.32	1202.331
72.34	1182.146
72.36	1149.828
72.38	1153.573
72.4	1156.316
72.42	1076.491
72.44	1142.542
72.46	1098.022
72.48	1077.974
72.5	1144.612
72.52	1108.111
72.54	1172.123
72.56	1136.097
72.58	1088.318
72.6	1210.467
72.62	1168.607
72.64	1228.486
72.66	1148.891
72.68	1121.374
72.7	1061.91
72.72	1156.363
72.74	1217.46
72.76	1175.694
72.78	1269.838
72.8	1208.657
72.82	1143.117
72.84	1163.556
72.86	1181.388
72.88	1013.077
72.9	1172.672
72.92	1137.517
72.94	1158.193
72.96	1168.73
72.98	1171.007
73	1131.045
73.02	1094.693
73.04	1158.171
73.06	1070.696
73.08	1107.206
73.1	1142.188
73.12	1151.459
73.14	1217.294
73.16	1155.929
73.18	1136.438
73.2	1166.063
73.22	1109.196
73.24	1127.239
73.26	1088.427
73.28	1172.702
73.3	1175.324
73.32	1128.902
73.34	1104.594
73.36	1196.632
73.38	1259.374
73.4	1293.953
73.42	1141.77
73.44	1164.168
73.46	1107.732
73.48	1178.838
73.5	1177.836
73.52	1160.286
73.54	1118.965
73.56	1153.485
73.58	1206.366
73.6	1178.594
73.62	1157.405
73.64	1164.144
73.66	1133.638
73.68	1123.403
73.7	1205.641
73.72	1193.013
73.74	1174.412
73.76	1236.917
73.78	1223.249
73.8	1176.875
73.82	1216.358
73.84	1252.069
73.86	1296.737
73.88	1262.615
73.9	1355.994
73.92	1371.753
73.94	1340.147
73.96	1318.167
73.98	1365.566
74	1405.824
74.02	1418.017
74.04	1444.54
74.06	1482.753
74.08	1403.22
74.1	1470.466
74.12	1520.791
74.14	1530.348
74.16	1474.81
74.18	1416.655
74.2	1380.658
74.22	1364.691
74.24	1313.857
74.26	1402.953
74.28	1376.704
74.3	1316.345
74.32	1356.885
74.34	1219.185
74.36	1260.171
74.38	1274.127
74.4	1279.657
74.42	1177.133
74.44	1220.942
74.46	1191.23
74.48	1184.732
74.5	1154.997
74.52	1160.644
74.54	1218.489
74.56	1132.877
74.58	1187.323
74.6	1107.79
74.62	1138.248
74.64	1109.895
74.66	1126.146
74.68	1185.258
74.7	1089.84
74.72	1151.517
74.74	1135.562
74.76	1167.906
74.78	1133.701
74.8	1169.241
74.82	1153.142
74.84	1147.473
74.86	1079.659
74.88	1153.144
74.9	1203.463
74.92	1205.154
74.94	1216.784
74.96	1114.442
74.98	1098.095
75	1139.864
75.02	1054.823
75.04	1075.203
75.06	1113.856
75.08	1106.464
75.1	1184.267
75.12	1162.842
75.14	1209.577
75.16	1188.185
75.18	1145.865
75.2	1170.205
75.22	1190.476
75.24	1196.404
75.26	1125.488
75.28	1099.121
75.3	1286.766
75.32	1193.039
75.34	1226.634
75.36	1242.41
75.38	1144.376
75.4	1238.293
75.42	1226.099
75.44	1232.497
75.46	1196.417
75.48	1275.445
75.5	1191.099
75.52	1298.734
75.54	1315.296
75.56	1322.177
75.58	1334.029
75.6	1340.899
75.62	1314.882
75.64	1378.506
75.66	1440.92
75.68	1487.112
75.7	1515.092
75.72	1571.914
75.74	1617.95
75.76	1673.038
75.78	1712.873
75.8	1770.535
75.82	1821.498
75.84	1974.263
75.86	2103.323
75.88	2274.027
75.9	2422.228
75.92	2643.458
75.94	2801.93
75.96	2996.941
75.98	3318.226
76	3499.11
76.02	3645.239
76.04	3659.475
76.06	3903.505
76.08	3995.853
76.1	4085.377
76.12	4011.273
76.14	3954.881
76.16	3584.228
76.18	3394.878
76.2	3303.622
76.22	3069.981
76.24	2906.584
76.26	2804.608
76.28	2720.342
76.3	2705.367
76.32	2569.303
76.34	2579.266
76.36	2455.798
76.38	2270.686
76.4	2059.222
76.42	1976.993
76.44	1799.31
76.46	1625.984
76.48	1574.785
76.5	1515.215
76.52	1453.108
76.54	1436.766
76.56	1432.998
76.58	1338.652
76.6	1341.834
76.62	1278.297
76.64	1389.475
76.66	1298.418
76.68	1226.809
76.7	1306.088
76.72	1335.132
76.74	1370.13
76.76	1287.895
76.78	1300.075
76.8	1334
76.82	1334.428
76.84	1325.811
76.86	1368.461
76.88	1338.703
76.9	1320.239
76.92	1364.761
76.94	1443.425
76.96	1489.243
76.98	1682.01
77	1654.945
77.02	1741.35
77.04	1650.866
77.06	1812.476
77.08	1929.843
77.1	2179.7
77.12	2231.606
77.14	2400.755
77.16	2654.936
77.18	2761.577
77.2	3047
77.22	3215.691
77.24	3575.144
77.26	3771.108
77.28	3784.404
77.3	3702.33
77.32	3647.461
77.34	3441.645
77.36	3068.728
77.38	2838.652
77.4	2657.962
77.42	2577.165
77.44	2562.319
77.46	2541.027
77.48	2585.276
77.5	2641.273
77.52	2505.621
77.54	2365.923
77.56	2263.289
77.58	2027.206
77.6	1898.008
77.62	1724.764
77.64	1550.031
77.66	1382.536
77.68	1383.647
77.7	1368.673
77.72	1290.074
77.74	1304.815
77.76	1264.118
77.78	1255.128
77.8	1164.903
77.82	1163.297
77.84	1149.811
77.86	1099.78
77.88	1088.679
77.9	1181.916
77.92	1199.849
77.94	1216.79
77.96	1136.375
77.98	1151.971
78	1109.198
78.02	1093.374
78.04	1054.109
78.06	1088.192
78.08	1150.412
78.1	1078.367
78.12	1143.352
78.14	1014.442
78.16	1076.18
78.18	1122.657
78.2	1051.799
78.22	1102.023
78.24	1053.207
78.26	1152.115
78.28	1047.813
78.3	1087.934
78.32	1160.203
78.34	1143.48
78.36	1036.515
78.38	1004.456
78.4	1097.581
78.42	1040.293
78.44	1056.543
78.46	1049.44
78.48	1069.521
78.5	1065.753
78.52	1076.502
78.54	1095.015
78.56	1054.539
78.58	1102.771
78.6	1101.136
78.62	1113.14
78.64	1072.078
78.66	1065.863
78.68	1094.38
78.7	1039.088
78.72	1032.782
78.74	1091.023
78.76	1056.143
78.78	1042.872
78.8	1097.063
78.82	1052.171
78.84	1108.411
78.86	1092.88
78.88	1063.326
78.9	1047.999
78.92	1040.298
78.94	1048.862
78.96	1081.38
78.98	1079.758
79	1066.648
79.02	1116.126
79.04	1116.389
79.06	1083.45
79.08	999.7154
79.1	1109.044
79.12	1077.376
79.14	1016.361
79.16	1076.734
79.18	1121.052
79.2	1056.239
79.22	1136.93
79.24	1092.935
79.26	1097.802
79.28	1045.167
79.3	1042.236
79.32	972.1743
79.34	1157.083
79.36	1094.16
79.38	1033.163
79.4	1042.058
79.42	1068.268
79.44	1052.239
79.46	1077.959
79.48	1008.811
79.5	1037.18
79.52	1047.481
79.54	1047.968
79.56	1049.387
79.58	992.8174
79.6	1076.543
79.62	965.8644
79.64	1037.055
79.66	1063.025
79.68	1035.7
79.7	1044.844
79.72	1093.766
79.74	1050.003
79.76	1039.197
79.78	1025.095
79.8	1092.692
79.82	1027.445
79.84	1055.328
79.86	1091.768
79.88	1041.229
79.9	1096.271
79.92	1043.12
79.94	1036.72
79.96	1051.333
79.98	1099.747
80	1017.23
80.02	1031.303
80.04	1115.241
80.06	1027.92
80.08	1038.436
80.1	1017.471
80.12	993.2455
80.14	1048.158
80.16	1038.565
80.18	1109.982
80.2	1059.722
80.22	1021.159
80.24	1047.641
80.26	1056.148
80.28	1020.913
80.3	1023.061
80.32	952.6349
80.34	1033.41
80.36	1085.13
80.38	1060.463
80.4	1109.394
80.42	985.0379
80.44	1063.651
80.46	1039.411
80.48	975.6957
80.5	1032.458
80.52	1019.223
80.54	1101.345
80.56	1051.626
80.58	974.4023
80.6	1110.095
80.62	1011.28
80.64	985.4258
80.66	995.5142
80.68	1015.111
80.7	1035.846
80.72	1073.198
80.74	984.3587
80.76	989.8012
80.78	950.23
80.8	1051.298
80.82	1013.668
80.84	978.618
80.86	1022.805
80.88	1025.307
80.9	981.3758
80.92	1048.392
80.94	1046.809
80.96	1047.336
80.98	965.3331
81	1099.247
81.02	1011.804
81.04	926.6836
81.06	989.0585
81.08	900.5035
81.1	980.64
81.12	1058.283
81.14	1013.447
81.16	1011.216
81.18	1079.964
81.2	1015.505
81.22	982.9818
81.24	991.1243
81.26	1064.942
81.28	958.2999
81.3	1004.528
81.32	1027.736
81.34	1041.317
81.36	1129.531
81.38	1057.912
81.4	1069.004
81.42	1095.142
81.44	1008.467
81.46	986.7715
81.48	975.4907
81.5	1061.438
81.52	978.2685
81.54	1005.642
81.56	969.8629
81.58	1025.575
81.6	969.594
81.62	992.512
81.64	1081.102
81.66	1037.293
81.68	1049.33
81.7	1077.396
81.72	988.0709
81.74	1005.444
81.76	1047.461
81.78	1004.113
81.8	1043.284
81.82	998.1137
81.84	1049.639
81.86	1039.056
81.88	1011.896
81.9	1059.166
81.92	1089.223
81.94	1087.744
81.96	1086.448
81.98	1057.282
82	1118.022
82.02	1077.621
82.04	1110.513
82.06	1053.927
82.08	1016.581
82.1	1051.333
82.12	1041.545
82.14	1047.876
82.16	1055.719
82.18	1056.34
82.2	1033.416
82.22	1050.671
82.24	1021.047
82.26	996.0759
82.28	1054.122
82.3	1074.352
82.32	1071.199
82.34	1133.171
82.36	1109.439
82.38	1089.917
82.4	1024.151
82.42	1076.358
82.44	985.741
82.46	1030.359
82.48	980.9326
82.5	1029.56
82.52	1045.936
82.54	1078.015
82.56	1101.071
82.58	1052.872
82.6	1023.745
82.62	1021.729
82.64	1116.985
82.66	943.3329
82.68	971.7964
82.7	940.7505
82.72	1075.704
82.74	1016.653
82.76	1026.57
82.78	994.6439
82.8	1036.953
82.82	1032.84
82.84	1036.387
82.86	1091.391
82.88	1012.841
82.9	990.6461
82.92	1035.661
82.94	1061.478
82.96	957.5449
82.98	1024.784
83	1054.284
83.02	1001.684
83.04	1107.485
83.06	1025.196
83.08	1013.038
83.1	1054.712
83.12	1012.664
83.14	1015.129
83.16	997.1771
83.18	1028.807
83.2	1068.349
83.22	1020.855
83.24	1033.12
83.26	985.7299
83.28	989.733
83.3	1039.547
83.32	985.3825
83.34	1048.657
83.36	1056.276
83.38	1089.578
83.4	975.2258
83.42	1006.806
83.44	1030.858
83.46	1083.682
83.48	943.6567
83.5	1020.793
83.52	974.5602
83.54	968.4774
83.56	1112.002
83.58	1038.473
83.6	977.6898
83.62	1023.231
83.64	1071.875
83.66	973.6857
83.68	947.4035
83.7	1012.297
83.72	975.3402
83.74	1047.279
83.76	1015.639
83.78	1041.981
83.8	1015.836
83.82	1006.455
83.84	950.5156
83.86	1025.9
83.88	1043.981
83.9	992.2068
83.92	1000.47
83.94	971.1003
83.96	997.5954
83.98	1004.836
84	1013.737
84.02	1015.21
84.04	1047.709
84.06	1057.181
84.08	995.6184
84.1	960.5251
84.12	999.3648
84.14	955.5538
84.16	1006.158
84.18	985.6604
84.2	981.9163
84.22	973.274
84.24	1071.718
84.26	969.4303
84.28	989.2214
84.3	954.9431
84.32	957.5201
84.34	961.0016
84.36	1039.595
84.38	936.6501
84.4	1041.423
84.42	958.9107
84.44	956.9634
84.46	1041.866
84.48	963.4203
84.5	965.893
84.52	964.8856
84.54	928.5445
84.56	980.6209
84.58	942.0848
84.6	971.4767
84.62	1010.001
84.64	1021.729
84.66	969.0397
84.68	949.8516
84.7	940.0269
84.72	907.411
84.74	968.752
84.76	995.7393
84.78	913.0543
84.8	963.2481
84.82	977.6472
84.84	996.3504
84.86	962.7336
84.88	1002.943
84.9	970.8353
84.92	925.5477
84.94	1026.45
84.96	1007.045
84.98	914.7838
85	969.4114
85.02	971.5811
85.04	1031.856
85.06	1021.111
85.08	998.5405
85.1	976.3087
85.12	995.6822
85.14	989.0523
85.16	950.732
85.18	975.9221
85.2	1007.789
85.22	927.5358
85.24	981.5789
85.26	959.4467
85.28	974.8835
85.3	976.7411
85.32	999.9855
85.34	920.5941
85.36	952.5872
85.38	949.2298
85.4	961.7912
85.42	897.3461
85.44	957.3644
85.46	981.7006
85.48	1024.918
85.5	957.8809
85.52	949.5698
85.54	950.9898
85.56	927.813
85.58	877.3475
85.6	957.8749
85.62	988.1435
85.64	1001.271
85.66	929.5682
85.68	987.5906
85.7	894.1878
85.72	947.6982
85.74	930.8393
85.76	997.0738
85.78	1022.58
85.8	919.4799
85.82	917.822
85.84	1018.865
85.86	991.7153
85.88	1054.28
85.9	1029.956
85.92	883.7559
85.94	994.1954
85.96	993.652
85.98	953.5855
86	955.4882
86.02	988.5618
86.04	980.0563
86.06	980.5103
86.08	1005.737
86.1	931.0064
86.12	942.5688
86.14	1011.793
86.16	1042.667
86.18	1056.184
86.2	1062.274
86.22	1044.538
86.24	1026.688
86.26	1008.866
86.28	1059.576
86.3	1084.23
86.32	1105.015
86.34	1095.58
86.36	1146.309
86.38	1134.325
86.4	1217.712
86.42	1170.794
86.44	1210.1
86.46	1227.928
86.48	1239.11
86.5	1214.407
86.52	1368.803
86.54	1347.302
86.56	1538.298
86.58	1475.611
86.6	1501.966
86.62	1440.425
86.64	1422.113
86.66	1424.187
86.68	1498.394
86.7	1514.98
86.72	1431.172
86.74	1425.26
86.76	1309.939
86.78	1283.99
86.8	1259.077
86.82	1240.785
86.84	1304.265
86.86	1261.826
86.88	1154.824
86.9	1278.921
86.92	1287.216
86.94	1210.496
86.96	1202.066
86.98	1067.457
87	1058.531
87.02	1117.139
87.04	1054.82
87.06	1085.939
87.08	1086.017
87.1	961.9183
87.12	1036.892
87.14	1021.146
87.16	937.343
87.18	905.4609
87.2	943.3026
87.22	1047.774
87.24	957.8538
87.26	917.5718
87.28	961.1723
87.3	869.8784
87.32	948.3413
87.34	1020.796
87.36	914.3344
87.38	940.9509
87.4	969.149
87.42	935.6506
87.44	1000.144
87.46	978.3801
87.48	912.3911
87.5	946.3404
87.52	931.474
87.54	892.3173
87.56	974.2307
87.58	878.7883
87.6	926.7036
87.62	980.3777
87.64	939.3569
87.66	955.3949
87.68	992.077
87.7	907.6841
87.72	954.0982
87.74	973.6232
87.76	929.0224
87.78	922.1612
87.8	896.4684
87.82	985.9265
87.84	945.2172
87.86	970.6107
87.88	892.991
87.9	937.7557
87.92	905.6785
87.94	873.3372
87.96	978.4247
87.98	948.6804
88	848.3448
88.02	955.8825
88.04	890.207
88.06	931.4913
88.08	960.6769
88.1	973.8107
88.12	904.2327
88.14	905.4722
88.16	911.0578
88.18	909.4296
88.2	907.5875
88.22	907.5024
88.24	907.3897
88.26	921.8503
88.28	881.6759
88.3	917.6144
88.32	995.7078
88.34	919.953
88.36	934.7176
88.38	919.6582
88.4	985.5558
88.42	956.0475
88.44	981.9775
88.46	850.444
88.48	950.3342
88.5	848.469
88.52	931.741
88.54	860.8187
88.56	963.623
88.58	949.5383
88.6	957.8708
88.62	929.8195
88.64	960.7654
88.66	1021.151
88.68	926.4255
88.7	942.4865
88.72	879.2989
88.74	953.5214
88.76	893.0067
88.78	887.6677
88.8	882.1252
88.82	928.8172
88.84	927.2961
88.86	931.8343
88.88	901.0671
88.9	867.9271
88.92	938.1308
88.94	850.2658
88.96	938.4126
88.98	955.1265
89	911.196
89.02	862.1536
89.04	930.9763
89.06	954.0688
89.08	900.9382
89.1	983.9677
89.12	937.7593
89.14	899.1807
89.16	915.5182
89.18	841.5413
89.2	937.5004
89.22	861.4054
89.24	904.4025
89.26	920.4294
89.28	871.4301
89.3	842.451
89.32	938.3965
89.34	920.9334
89.36	923.2174
89.38	886.5215
89.4	885.152
89.42	941.0306
89.44	942.6363
89.46	894.2792
89.48	929.5701
89.5	929.6125
89.52	869.997
89.54	928.164
89.56	915.2296
89.58	892.3115
89.6	930.2696
89.62	938.7426
89.64	947.6488
89.66	951.9579
89.68	973.6486
89.7	917.0121
89.72	900.1489
89.74	908.6985
89.76	953.7066
89.78	953.2115
89.8	921.6541
89.82	928.2021
89.84	939.5329
89.86	939.6893
89.88	909.7545
89.9	872.8819
89.92	890.6417
89.94	899.2391
89.96	937.4315
89.98	871.9875
90	909.134
