'Id: "" Comment: "" Operator: "administrator" Anode: "Cu" Scantype: "locked coupled" TimePerStep: "113.4" 
25	6395.959
25.02	6380.344
25.04	6246.676
25.06	6185.103
25.08	6307.932
25.1	6273.062
25.12	6319.477
25.14	6264.336
25.16	6309.693
25.18	6280.917
25.2	6375.22
25.22	6458.834
25.24	6263.447
25.26	6327.239
25.28	6389.208
25.3	6300.745
25.32	6421.05
25.34	6215.222
25.36	6231.057
25.38	6110.863
25.4	6036.635
25.42	6130.604
25.44	6077.191
25.46	6082.337
25.48	6166.261
25.5	6166.958
25.52	6250.202
25.54	6094.001
25.56	5945.722
25.58	6159.782
25.6	6197.857
25.62	6238.646
25.64	6061.975
25.66	6200.902
25.68	6068.431
25.7	6136.007
25.72	6010.495
25.74	6000.653
25.76	6100.792
25.78	6100.056
25.8	5973.463
25.82	5780.332
25.84	5987.021
25.86	5991.948
25.88	6042.603
25.9	6157.06
25.92	5997.295
25.94	5933.726
25.96	5939.829
25.98	6050.966
26	5954.005
26.02	6005.277
26.04	5903.336
26.06	5909.766
26.08	5969.044
26.1	5838.589
26.12	5931.006
26.14	5921.954
26.16	5867.884
26.18	5801.071
26.2	5985.214
26.22	5809.93
26.24	5808.394
26.26	5883.36
26.28	5828.967
26.3	5820.798
26.32	5832.385
26.34	5686.833
26.36	5804.879
26.38	5591.304
26.4	5837.31
26.42	5850.558
26.44	5552.146
26.46	5646.918
26.48	5674.756
26.5	5782.49
26.52	5671.057
26.54	5819.303
26.56	5906.522
26.58	5876.474
26.6	5877.108
26.62	5890.955
26.64	5830.009
26.66	5725.391
26.68	5703.077
26.7	5759.029
26.72	5692.252
26.74	5730.674
26.76	5600.546
26.78	5614.046
26.8	5576.285
26.82	5467.303
26.84	5361.155
26.86	5507.308
26.88	5623.158
26.9	5430.862
26.92	5509.006
26.94	5547.629
26.96	5459.322
26.98	5645.472
27	5464.705
27.02	5543.187
27.04	5537.382
27.06	5507.86
27.08	5467.089
27.1	5387.568
27.12	5705.511
27.14	5554.234
27.16	5653.083
27.18	5437.409
27.2	5425.333
27.22	5367.831
27.24	5417.058
27.26	5500.903
27.28	5468.693
27.3	5371.625
27.32	5371.795
27.34	5421.203
27.36	5353.169
27.38	5344.958
27.4	5353.247
27.42	5421.391
27.44	5366.68
27.46	5266.701
27.48	5350.431
27.5	5239.695
27.52	5394.522
27.54	5221.313
27.56	5284.244
27.58	5221.255
27.6	5373.538
27.62	5225.25
27.64	5381.578
27.66	5215.931
27.68	5258.912
27.7	5212.955
27.72	5302.783
27.74	5068.636
27.76	5152.401
27.78	5347.919
27.8	5250.094
27.82	5134.511
27.84	5086.27
27.86	5242.856
27.88	5126.452
27.9	5222.254
27.92	5242.059
27.94	5109.768
27.96	5094.217
27.98	5158.684
28	5265.619
28.02	5177.967
28.04	5169.215
28.06	5133.639
28.08	5113.691
28.1	5170.85
28.12	5010.222
28.14	5030.24
28.16	5022.993
28.18	5010.668
28.2	5151.482
28.22	5018.954
28.24	5127.08
28.26	5038.576
28.28	5082.166
28.3	5098.171
28.32	5125.23
28.34	5015.863
28.36	5130.3
28.38	5312.882
28.4	5182.704
28.42	5228.471
28.44	5158.13
28.46	5170.51
28.48	5057.24
28.5	5066.526
28.52	5044.247
28.54	5108.567
28.56	5033.75
28.58	5029.54
28.6	4866.11
28.62	5009.008
28.64	4956.43
28.66	5053.82
28.68	5017.503
28.7	4903.168
28.72	4723.52
28.74	4888.124
28.76	4830.206
28.78	4769.281
28.8	4817.719
28.82	4935.837
28.84	4832.682
28.86	4836.588
28.88	4904
28.9	4802.192
28.92	4862.229
28.94	4923.807
28.96	4887.89
28.98	4790.028
29	4763.895
29.02	4710.781
29.04	4695.311
29.06	4749.001
29.08	4835.812
29.1	4787.673
29.12	4634.451
29.14	4724.259
29.16	4816.271
29.18	4844.582
29.2	4683.823
29.22	4699.24
29.24	4759.873
29.26	4734.959
29.28	4639.429
29.3	4735.955
29.32	4726.823
29.34	4732.46
29.36	4738.455
29.38	4776.28
29.4	4607.432
29.42	4655.4
29.44	4737.089
29.46	4716.451
29.48	4666.761
29.5	4552.923
29.52	4663.809
29.54	4620.252
29.56	4512.446
29.58	4425.177
29.6	4758.195
29.62	4589.318
29.64	4509.295
29.66	4510.538
29.68	4513.137
29.7	4510.88
29.72	4599.476
29.74	4420.251
29.76	4591.279
29.78	4465.792
29.8	4476.878
29.82	4509.076
29.84	4497.38
29.86	4443.383
29.88	4489.47
29.9	4458.903
29.92	4485.725
29.94	4364.582
29.96	4450.402
29.98	4504.445
30	4412.094
30.02	4455.345
30.04	4355.533
30.06	4368.091
30.08	4306.598
30.1	4419.902
30.12	4477.191
30.14	4542.223
30.16	4460.004
30.18	4365.337
30.2	4342.297
30.22	4305.217
30.24	4255.284
30.26	4321.689
30.28	4250.154
30.3	4296.537
30.32	4262.878
30.34	4266.641
30.36	4327.208
30.38	4236.385
30.4	4371.967
30.42	4248.48
30.44	4369.237
30.46	4367.184
30.48	4359.544
30.5	4201.425
30.52	4307.703
30.54	4267.561
30.56	4305.239
30.58	4250.863
30.6	4239.375
30.62	4111.965
30.64	4309.267
30.66	4171.819
30.68	4225.303
30.7	4166.083
30.72	4109.283
30.74	4392.145
30.76	4069.304
30.78	4341.851
30.8	4384.954
30.82	4359.391
30.84	4145.328
30.86	4192.423
30.88	4208.039
30.9	4158.365
30.92	4045.902
30.94	4040.156
30.96	4058.529
30.98	4080.788
31	4207.687
31.02	4179.727
31.04	4245.335
31.06	4144.507
31.08	4109.193
31.1	4035.822
31.12	4153.29
31.14	4104.651
31.16	4160.256
31.18	4191.823
31.2	4201.44
31.22	4148.889
31.24	4174.171
31.26	4027.886
31.28	4061.264
31.3	4070.692
31.32	4003.922
31.34	4035.727
31.36	4097.046
31.38	3959.576
31.4	4126.709
31.42	3986.292
31.44	3957.673
31.46	4043.929
31.48	3995.222
31.5	3934.616
31.52	4067.52
31.54	3961.486
31.56	4188.884
31.58	3893.144
31.6	4010.49
31.62	3897.951
31.64	3799.013
31.66	4016.333
31.68	3953.632
31.7	3784.827
31.72	4023.025
31.74	3849.938
31.76	3899.799
31.78	3774.401
31.8	3890.692
31.82	3881.033
31.84	3822.039
31.86	3652.205
31.88	3808.44
31.9	3831.315
31.92	3796.917
31.94	3808.014
31.96	3765.013
31.98	3827.574
32	3763.347
32.02	3891.709
32.04	3636.957
32.06	3846.937
32.08	3625.337
32.1	3693.289
32.12	3893.559
32.14	3713.79
32.16	3876.078
32.18	3779.714
32.2	3850.517
32.22	3684.445
32.24	3702.891
32.26	3781.901
32.28	3818.317
32.3	3605.672
32.32	3693.217
32.34	3752.58
32.36	3716.442
32.38	3743.775
32.4	3700.721
32.42	3621.957
32.44	3716.402
32.46	3714.118
32.48	3681.661
32.5	3736.362
32.52	3715.514
32.54	3606.823
32.56	3625.531
32.58	3688.129
32.6	3600.899
32.62	3522.273
32.64	3610.073
32.66	3618.859
32.68	3599.859
32.7	3614.267
32.72	3674.822
32.74	3560.073
32.76	3475.112
32.78	3538.094
32.8	3663.681
32.82	3536.104
32.84	3533.814
32.86	3602.423
32.88	3598
32.9	3441.381
32.92	3676.541
32.94	3572.613
32.96	3449.661
32.98	3559.624
33	3550.749
33.02	3471.8
33.04	3351.791
33.06	3420.186
33.08	3666.918
33.1	3492.084
33.12	3535.813
33.14	3395.16
33.16	3363.339
33.18	3341.035
33.2	3444.71
33.22	3404.453
33.24	3430.857
33.26	3435.504
33.28	3486.746
33.3	3469.535
33.32	3401.513
33.34	3527.692
33.36	3329.119
33.38	3358.123
33.4	3354.573
33.42	3376.112
33.44	3375.997
33.46	3391.846
33.48	3425.044
33.5	3386.125
33.52	3387.088
33.54	3367.856
33.56	3390.281
33.58	3364.857
33.6	3335.85
33.62	3423.038
33.64	3282.19
33.66	3398.24
33.68	3345.582
33.7	3378.839
33.72	3492.406
33.74	3322.279
33.76	3341.556
33.78	3342.263
33.8	3280.939
33.82	3365.291
33.84	3235.505
33.86	3325.115
33.88	3296.139
33.9	3282.551
33.92	3318.774
33.94	3332.912
33.96	3278.977
33.98	3299.19
34	3255.686
34.02	3315.378
34.04	3351.712
34.06	3282.578
34.08	3219.636
34.1	3283.212
34.12	3196.339
34.14	3318.717
34.16	3176.254
34.18	3148.615
34.2	3188.945
34.22	3241.725
34.24	3205.395
34.26	3227.711
34.28	3268.73
34.3	3260.618
34.32	3173.962
34.34	3146.986
34.36	3039.48
34.38	3152.215
34.4	3222.974
34.42	3153.508
34.44	3046.538
34.46	3182.08
34.48	3123.981
34.5	3095.596
34.52	3093.456
34.54	3268.814
34.56	3010.542
34.58	3066.786
34.6	3285.53
34.62	3193.545
34.64	3192.512
34.66	3206.711
34.68	3221.355
34.7	3290.769
34.72	3220.452
34.74	3253.971
34.76	3328.521
34.78	3374.889
34.8	3411.816
34.82	3680.871
34.84	3885.524
34.86	4140.723
34.88	4299.18
34.9	4766.612
34.92	5354.047
34.94	6070.872
34.96	6790.993
34.98	7651.814
35	8578.725
35.02	9170.724
35.04	9024.985
35.06	8406.711
35.08	7791.134
35.1	7235.348
35.12	6554.293
35.14	5940.61
35.16	5405.336
35.18	4646.418
35.2	3987.424
35.22	3812.732
35.24	3671.646
35.26	3464.161
35.28	3449.645
35.3	3227.497
35.32	3315.741
35.34	3098.828
35.36	3051.801
35.38	3003.8
35.4	3104.485
35.42	3105.667
35.44	3017.518
35.46	2991.796
35.48	2965.367
35.5	2910.578
35.52	2847.656
35.54	2918.828
35.56	2815.282
35.58	2904.102
35.6	2954.836
35.62	2921.899
35.64	2874.551
35.66	2814.38
35.68	2860.135
35.7	2824.201
35.72	2825.333
35.74	2823.111
35.76	2745.773
35.78	2889.743
35.8	2822.123
35.82	2851.091
35.84	2882.947
35.86	2854.426
35.88	2791.019
35.9	2885.931
35.92	2839.856
35.94	2765.219
35.96	2724.118
35.98	2813.344
36	2784.115
36.02	2767.857
36.04	2885.491
36.06	2877.428
36.08	2869.544
36.1	2698.846
36.12	2701.451
36.14	2765.542
36.16	2865.047
36.18	2732.02
36.2	2740.441
36.22	2754.347
36.24	2658.529
36.26	2693.977
36.28	2775.464
36.3	2799.768
36.32	2657.021
36.34	2643.652
36.36	2636.242
36.38	2728.073
36.4	2622.472
36.42	2650.464
36.44	2671.773
36.46	2564.119
36.48	2760.635
36.5	2706.054
36.52	2702.891
36.54	2723.992
36.56	2656.613
36.58	2691.772
36.6	2610.997
36.62	2685.636
36.64	2642.894
36.66	2607.482
36.68	2583.272
36.7	2502.559
36.72	2629.311
36.74	2560.923
36.76	2602.99
36.78	2638.032
36.8	2649.842
36.82	2638.17
36.84	2620.823
36.86	2658.584
36.88	2567.559
36.9	2573.35
36.92	2595.56
36.94	2509.168
36.96	2610.659
36.98	2595.221
37	2607.613
37.02	2676.108
37.04	2498.368
37.06	2605.754
37.08	2534.622
37.1	2495.139
37.12	2605.748
37.14	2454.474
37.16	2562.057
37.18	2563.853
37.2	2472.92
37.22	2578.162
37.24	2489.949
37.26	2552.101
37.28	2499.249
37.3	2535.491
37.32	2440.281
37.34	2646.792
37.36	2602.119
37.38	2522.275
37.4	2601.102
37.42	2504.638
37.44	2469.031
37.46	2569.888
37.48	2539.713
37.5	2567.56
37.52	2457.22
37.54	2479.593
37.56	2465.225
37.58	2446.676
37.6	2493.314
37.62	2494.298
37.64	2441.012
37.66	2609.705
37.68	2334.195
37.7	2511.049
37.72	2559.802
37.74	2479.963
37.76	2451.008
37.78	2528.25
37.8	2540.785
37.82	2462.186
37.84	2432.564
37.86	2405.589
37.88	2463.638
37.9	2576.41
37.92	2617.896
37.94	2507.357
37.96	2547.844
37.98	2614.157
38	2626.024
38.02	2632.074
38.04	2600.251
38.06	2757.46
38.08	2807.182
38.1	2821.584
38.12	2911.938
38.14	2968.344
38.16	3018.946
38.18	3251.434
38.2	3516.171
38.22	3758.224
38.24	3942.903
38.26	4398.708
38.28	4289.955
38.3	4366.576
38.32	4242.234
38.34	4431.409
38.36	4180.288
38.38	3914.886
38.4	3983.66
38.42	3661.826
38.44	3413.309
38.46	3356.121
38.48	3354.709
38.5	3450.992
38.52	3266.16
38.54	3507.68
38.56	3291.711
38.58	3260.692
38.6	3288.059
38.62	3422.298
38.64	3377.198
38.66	3471.841
38.68	3528.378
38.7	3614.853
38.72	3531.83
38.74	3562.377
38.76	3596.786
38.78	3556.021
38.8	3598.655
38.82	3584.858
38.84	3467.585
38.86	3338.407
38.88	3305.297
38.9	3286.605
38.92	3035.751
38.94	3171.573
38.96	2952.321
38.98	2962.642
39	3093.988
39.02	2847.372
39.04	2750.635
39.06	2777.167
39.08	2662.918
39.1	2726.152
39.12	2863.756
39.14	2730.143
39.16	2695.44
39.18	2757.494
39.2	2546.068
39.22	2575.104
39.24	2555.144
39.26	2542.739
39.28	2540.22
39.3	2672.952
39.32	2563.748
39.34	2591.603
39.36	2584.76
39.38	2626.053
39.4	2640.859
39.42	2542.727
39.44	2520.328
39.46	2515.649
39.48	2692.577
39.5	2665.372
39.52	2628.311
39.54	2636.997
39.56	2673.223
39.58	2693.509
39.6	2669.095
39.62	2743.499
39.64	2660.97
39.66	2959.09
39.68	2982.811
39.7	3120.987
39.72	3112.623
39.74	3355.83
39.76	3564.609
39.78	3856.224
39.8	4062.556
39.82	4609.9
39.84	4975.991
39.86	5805.868
39.88	6500.673
39.9	7710.726
39.92	9082.801
39.94	10778.21
39.96	13070.01
39.98	16134.17
40	19793.58
40.02	25184.43
40.04	30565.73
40.06	35663.88
40.08	38436.25
40.1	37911.68
40.12	33972.14
40.14	29364.35
40.16	25830.79
40.18	23438.49
40.2	20855.35
40.22	17119.04
40.24	12926.74
40.26	9579.482
40.28	7503.321
40.3	6092.753
40.32	5338.319
40.34	4392.644
40.36	3890.543
40.38	3672.073
40.4	3559.199
40.42	3302.737
40.44	3039.266
40.46	2936.915
40.48	2791.7
40.5	2779.461
40.52	2770.432
40.54	2750.884
40.56	2779.035
40.58	2536.35
40.6	2541.871
40.62	2565.65
40.64	2555.351
40.66	2362.902
40.68	2364.091
40.7	2414.399
40.72	2249.989
40.74	2435.201
40.76	2328.009
40.78	2386.807
40.8	2297.64
40.82	2334.444
40.84	2281.024
40.86	2222.326
40.88	2349.497
40.9	2255.104
40.92	2241.054
40.94	2226.065
40.96	2282.644
40.98	2188.112
41	2269.717
41.02	2171.408
41.04	2111.811
41.06	2162.619
41.08	2129.8
41.1	2207.85
41.12	2134.337
41.14	2069.825
41.16	2122.505
41.18	2234.344
41.2	2207.403
41.22	2137.011
41.24	2087.15
41.26	2173.247
41.28	2099.911
41.3	2105.141
41.32	2080.043
41.34	2051.322
41.36	2087.99
41.38	1970.3
41.4	2078.179
41.42	1972.919
41.44	1960.082
41.46	2052.484
41.48	2137.481
41.5	1966.966
41.52	1994.224
41.54	2125.797
41.56	2008.957
41.58	2034.049
41.6	2058.366
41.62	2117.545
41.64	2070.866
41.66	2107.514
41.68	2021.939
41.7	1939.838
41.72	2040.943
41.74	2036.968
41.76	2052.644
41.78	2072.147
41.8	2045.349
41.82	1981.017
41.84	2017.311
41.86	1906.6
41.88	2003.189
41.9	2037.132
41.92	2050.012
41.94	2071.195
41.96	1945.929
41.98	1999.495
42	2032.415
42.02	2031.825
42.04	1968.63
42.06	2057.739
42.08	2045.812
42.1	1938.924
42.12	2050.179
42.14	1981.374
42.16	2006.626
42.18	1929.2
42.2	1942.711
42.22	1932.614
42.24	1950.352
42.26	2018.395
42.28	1943.515
42.3	1972.398
42.32	1904.725
42.34	2023.388
42.36	1969.159
42.38	1983.329
42.4	1953.401
42.42	1910.224
42.44	1997.083
42.46	1977.017
42.48	1951.579
42.5	1960.982
42.52	1998.019
42.54	1904.384
42.56	1953.662
42.58	1910.719
42.6	1920.905
42.62	1909.063
42.64	1973.596
42.66	1930.537
42.68	1946.811
42.7	1978.199
42.72	1889.565
42.74	1947.776
42.76	1939.117
42.78	1896.167
42.8	1822.226
42.82	1978.509
42.84	1869.997
42.86	1853.77
42.88	1864.557
42.9	1898.221
42.92	1862.695
42.94	1852.712
42.96	1882.737
42.98	1959.088
43	1921.204
43.02	1782.471
43.04	1855.687
43.06	1903.307
43.08	1860.784
43.1	1821.623
43.12	1874.726
43.14	1889.263
43.16	1843.352
43.18	1941.579
43.2	1852.751
43.22	1807.345
43.24	1841.453
43.26	1938.31
43.28	1911.596
43.3	1828.801
43.32	1884.735
43.34	1886.352
43.36	1912.433
43.38	1875.165
43.4	1958.391
43.42	1844.823
43.44	1893.827
43.46	1837.119
43.48	1903.748
43.5	1882.272
43.52	1854.467
43.54	1883.063
43.56	1894.534
43.58	1761.751
43.6	1833.502
43.62	1810.041
43.64	1859.208
43.66	1854.239
43.68	1781.566
43.7	1898.587
43.72	1759.632
43.74	1803.624
43.76	1757.736
43.78	1836.689
43.8	1841.113
43.82	1906.795
43.84	1875.702
43.86	1810.589
43.88	1798.557
43.9	1757.298
43.92	1837.6
43.94	1886.813
43.96	1777.406
43.98	1887.253
44	1859.292
44.02	1759.491
44.04	1798.973
44.06	1820.438
44.08	1818.989
44.1	1787.484
44.12	1903.653
44.14	1795.771
44.16	1741.406
44.18	1794.807
44.2	1810.641
44.22	1747.765
44.24	1813.406
44.26	1768.17
44.28	1782.269
44.3	1842.107
44.32	1871.419
44.34	1806.204
44.36	1799.701
44.38	1754.418
44.4	1796.761
44.42	1834.681
44.44	1748.161
44.46	1762.368
44.48	1717.233
44.5	1682.963
44.52	1768.539
44.54	1812.395
44.56	1791.564
44.58	1697.689
44.6	1754.544
44.62	1731.946
44.64	1721.455
44.66	1771.456
44.68	1685.37
44.7	1809.308
44.72	1740.275
44.74	1720.416
44.76	1781.556
44.78	1711.892
44.8	1649.099
44.82	1842.585
44.84	1805.833
44.86	1718.23
44.88	1766.966
44.9	1751.101
44.92	1801.932
44.94	1721.125
44.96	1704.446
44.98	1760.992
45	1756.543
45.02	1762.279
45.04	1709.223
45.06	1721.934
45.08	1699.799
45.1	1721.192
45.12	1787.613
45.14	1729.745
45.16	1699.75
45.18	1729.953
45.2	1703.963
45.22	1748.998
45.24	1727.032
45.26	1721.079
45.28	1719.254
45.3	1761.95
45.32	1770.715
45.34	1778.254
45.36	1716.912
45.38	1746.233
45.4	1778.627
45.42	1753.926
45.44	1622.189
45.46	1706.582
45.48	1714.499
45.5	1761.849
45.52	1625.601
45.54	1706.795
45.56	1676.951
45.58	1687.394
45.6	1729.403
45.62	1650.865
45.64	1736.184
45.66	1775.396
45.68	1672.372
45.7	1641.226
45.72	1741.936
45.74	1701.278
45.76	1700.471
45.78	1632.152
45.8	1608.302
45.82	1682.429
45.84	1726.301
45.86	1603.433
45.88	1695.445
45.9	1712.225
45.92	1701.021
45.94	1632.031
45.96	1651.703
45.98	1748.662
46	1664.964
46.02	1665.656
46.04	1635.929
46.06	1691.639
46.08	1640.02
46.1	1607.884
46.12	1676.404
46.14	1697.142
46.16	1708.823
46.18	1758.453
46.2	1686.41
46.22	1638.926
46.24	1689.056
46.26	1647.32
46.28	1606.405
46.3	1643.573
46.32	1611.244
46.34	1685.494
46.36	1617.213
46.38	1633.388
46.4	1674.046
46.42	1590.563
46.44	1624.32
46.46	1692.443
46.48	1541.317
46.5	1575.402
46.52	1534.036
46.54	1686.094
46.56	1612.451
46.58	1660.791
46.6	1718.733
46.62	1606.729
46.64	1661.71
46.66	1626.949
46.68	1681.325
46.7	1661.915
46.72	1680.293
46.74	1597.884
46.76	1627.33
46.78	1699.525
46.8	1649.773
46.82	1617.669
46.84	1660.224
46.86	1554.614
46.88	1654.46
46.9	1620.229
46.92	1612.353
46.94	1571.87
46.96	1543.351
46.98	1720.446
47	1621.543
47.02	1659.902
47.04	1594.742
47.06	1589.526
47.08	1552.845
47.1	1597.21
47.12	1611.741
47.14	1532.951
47.16	1576.381
47.18	1504.295
47.2	1579.204
47.22	1605.516
47.24	1629.023
47.26	1585.518
47.28	1567.759
47.3	1669.013
47.32	1510.972
47.34	1579.693
47.36	1627.057
47.38	1619.746
47.4	1698.844
47.42	1637.186
47.44	1624.676
47.46	1505.322
47.48	1665.216
47.5	1600.954
47.52	1546.383
47.54	1642.986
47.56	1604.036
47.58	1573.128
47.6	1626.866
47.62	1594.496
47.64	1624.757
47.66	1638.947
47.68	1629.789
47.7	1590.268
47.72	1670.655
47.74	1572.026
47.76	1559.165
47.78	1558.937
47.8	1590.213
47.82	1508.54
47.84	1588.772
47.86	1512.512
47.88	1531.463
47.9	1560.298
47.92	1606.798
47.94	1541.197
47.96	1578.842
47.98	1556.287
48	1569.042
48.02	1540.321
48.04	1568.857
48.06	1578.43
48.08	1553.338
48.1	1544.912
48.12	1519.844
48.14	1627.567
48.16	1531.822
48.18	1551.076
48.2	1635.641
48.22	1560.22
48.24	1536.188
48.26	1491.27
48.28	1495.731
48.3	1505.248
48.32	1595.072
48.34	1544.332
48.36	1578.836
48.38	1569.502
48.4	1557.811
48.42	1665.958
48.44	1553.041
48.46	1557.356
48.48	1568.252
48.5	1600.127
48.52	1519.885
48.54	1562.791
48.56	1598.77
48.58	1534.61
48.6	1509.8
48.62	1443.333
48.64	1511.223
48.66	1489.753
48.68	1477.805
48.7	1497.536
48.72	1488.512
48.74	1477.109
48.76	1489.202
48.78	1507.451
48.8	1512.929
48.82	1471.827
48.84	1545.659
48.86	1583.374
48.88	1518.898
48.9	1498.155
48.92	1453.627
48.94	1525.601
48.96	1538.023
48.98	1495.07
49	1650.141
49.02	1491.854
49.04	1537.081
49.06	1476.618
49.08	1467.257
49.1	1538.981
49.12	1519.195
49.14	1445.1
49.16	1457.968
49.18	1452.358
49.2	1685.479
49.22	1534.683
49.24	1475.745
49.26	1443.291
49.28	1427.931
49.3	1502.92
49.32	1470.813
49.34	1483.299
49.36	1493.852
49.38	1538.253
49.4	1503.873
49.42	1506.02
49.44	1430.128
49.46	1455.758
49.48	1478.413
49.5	1449.873
49.52	1468.726
49.54	1469.307
49.56	1491.213
49.58	1475.076
49.6	1513.576
49.62	1481.523
49.64	1504.29
49.66	1491.411
49.68	1498.619
49.7	1531.74
49.72	1475.832
49.74	1549.011
49.76	1545.401
49.78	1514.029
49.8	1495.594
49.82	1468.373
49.84	1548.555
49.86	1510.445
49.88	1419.048
49.9	1477.658
49.92	1479.329
49.94	1492.446
49.96	1463.642
49.98	1553.615
50	1575.559
50.02	1551.093
50.04	1467.092
50.06	1481.913
50.08	1457.256
50.1	1467
50.12	1478.506
50.14	1510.198
50.16	1420.046
50.18	1478.462
50.2	1508.841
50.22	1426.027
50.24	1463.042
50.26	1450.459
50.28	1457.254
50.3	1398.09
50.32	1424.741
50.34	1517.184
50.36	1478.256
50.38	1462.032
50.4	1421.127
50.42	1466.745
50.44	1471.709
50.46	1461.859
50.48	1485.925
50.5	1506.787
50.52	1461.576
50.54	1501.796
50.56	1460.078
50.58	1448.853
50.6	1465.003
50.62	1400.56
50.64	1435.566
50.66	1510.104
50.68	1426.112
50.7	1465.474
50.72	1379.474
50.74	1437.54
50.76	1448.258
50.78	1485.396
50.8	1457.72
50.82	1434.579
50.84	1498.212
50.86	1433.631
50.88	1477.991
50.9	1441.402
50.92	1452.558
50.94	1463.863
50.96	1534.527
50.98	1490.82
51	1404.867
51.02	1474.871
51.04	1414.995
51.06	1463.383
51.08	1479.875
51.1	1475.047
51.12	1506.491
51.14	1489.388
51.16	1464.335
51.18	1391.074
51.2	1438.581
51.22	1454.568
51.24	1487.398
51.26	1511.08
51.28	1404.275
51.3	1492.518
51.32	1482.301
51.34	1410.305
51.36	1479.597
51.38	1457.37
51.4	1389.83
51.42	1442.357
51.44	1445.788
51.46	1447.372
51.48	1515.12
51.5	1403.137
51.52	1451.694
51.54	1469.406
51.56	1424.401
51.58	1496.695
51.6	1465.964
51.62	1548.858
51.64	1480.072
51.66	1458.803
51.68	1377.902
51.7	1457.932
51.72	1468.94
51.74	1478.176
51.76	1441.673
51.78	1409.628
51.8	1362.765
51.82	1394.809
51.84	1447.613
51.86	1512.374
51.88	1484.196
51.9	1483.408
51.92	1412.134
51.94	1432.357
51.96	1527.245
51.98	1429.126
52	1464.726
52.02	1463.564
52.04	1462.331
52.06	1389.726
52.08	1449.457
52.1	1517.047
52.12	1443.651
52.14	1592.933
52.16	1465.692
52.18	1453.18
52.2	1479.332
52.22	1498.343
52.24	1541.575
52.26	1483.156
52.28	1478.153
52.3	1476.998
52.32	1559.241
52.34	1568.707
52.36	1557.376
52.38	1600.199
52.4	1558.472
52.42	1578.086
52.44	1639.741
52.46	1656.718
52.48	1667.199
52.5	1761.746
52.52	1807.067
52.54	1858.095
52.56	1957.425
52.58	2041.299
52.6	2177.736
52.62	2351.336
52.64	2495.035
52.66	2671.96
52.68	3014.091
52.7	3440.202
52.72	3878.881
52.74	4490.995
52.76	5362.235
52.78	6408.528
52.8	7479.091
52.82	8687.257
52.84	10052.59
52.86	10854.62
52.88	11278.77
52.9	10783.64
52.92	9759.105
52.94	8446.485
52.96	7633.493
52.98	7268.468
53	7003.146
53.02	6639.774
53.04	5945.68
53.06	5176.318
53.08	4328.685
53.1	3415.129
53.12	2849.416
53.14	2440.891
53.16	2176.924
53.18	1987.483
53.2	1923.319
53.22	1901.346
53.24	1795.905
53.26	1724.691
53.28	1643.069
53.3	1672.092
53.32	1677.625
53.34	1610.505
53.36	1557.842
53.38	1469.969
53.4	1525.849
53.42	1668.631
53.44	1590.287
53.46	1454.727
53.48	1496.717
53.5	1555.173
53.52	1463.129
53.54	1520.513
53.56	1446.97
53.58	1542.344
53.6	1539.161
53.62	1453.189
53.64	1497.429
53.66	1507.516
53.68	1503.768
53.7	1448.233
53.72	1421.226
53.74	1494.117
53.76	1457.467
53.78	1485.721
53.8	1463.944
53.82	1468.149
53.84	1464.792
53.86	1531.18
53.88	1418.885
53.9	1447.004
53.92	1485.253
53.94	1439.24
53.96	1422.168
53.98	1467.542
54	1481.639
54.02	1491.371
54.04	1438.011
54.06	1425.38
54.08	1439.339
54.1	1494.197
54.12	1425.119
54.14	1506.51
54.16	1426.121
54.18	1457.57
54.2	1413.942
54.22	1461.378
54.24	1397.251
54.26	1458.535
54.28	1450.297
54.3	1416.984
54.32	1397.002
54.34	1449.769
54.36	1424.892
54.38	1464.865
54.4	1423.499
54.42	1519.774
54.44	1444.906
54.46	1416.036
54.48	1413.878
54.5	1442.805
54.52	1393.538
54.54	1455.295
54.56	1426.279
54.58	1581.52
54.6	1442.285
54.62	1459.692
54.64	1416.011
54.66	1440.203
54.68	1457.96
54.7	1468.025
54.72	1532.636
54.74	1615.832
54.76	1422.898
54.78	1531.505
54.8	1499.883
54.82	1440.183
54.84	1443.921
54.86	1576.823
54.88	1492.707
54.9	1572.412
54.92	1549.51
54.94	1462.678
54.96	1519.806
54.98	1585.505
55	1548.626
55.02	1536.089
55.04	1512.766
55.06	1560.763
55.08	1491.536
55.1	1489.523
55.12	1574.715
55.14	1512.771
55.16	1544.717
55.18	1533.478
55.2	1585.076
55.22	1664.391
55.24	1577.28
55.26	1607.754
55.28	1654.111
55.3	1634.035
55.32	1750.373
55.34	1770.412
55.36	1727.072
55.38	1684.569
55.4	1743.124
55.42	1591.231
55.44	1738.764
55.46	1832.03
55.48	1737.144
55.5	1808.599
55.52	1916.572
55.54	1855.899
55.56	1853.453
55.58	1844.597
55.6	1932.511
55.62	1888.863
55.64	2028.704
55.66	1984.764
55.68	2083.204
55.7	2050.149
55.72	2180.978
55.74	2091.584
55.76	2176.24
55.78	2139.467
55.8	2180.523
55.82	2235.066
55.84	2260.372
55.86	2382.997
55.88	2401.071
55.9	2359.63
55.92	2372.703
55.94	2407.095
55.96	2491.427
55.98	2476.046
56	2466.962
56.02	2499.153
56.04	2531.538
56.06	2433.471
56.08	2592.485
56.1	2386.784
56.12	2332.856
56.14	2364.776
56.16	2228.689
56.18	2157.264
56.2	2114.791
56.22	2147.817
56.24	2090.496
56.26	1969.649
56.28	1898.572
56.3	1886.932
56.32	1765.144
56.34	1740.338
56.36	1721.186
56.38	1681.361
56.4	1683.112
56.42	1656.029
56.44	1652.276
56.46	1621.173
56.48	1540.517
56.5	1463.552
56.52	1553.934
56.54	1549.51
56.56	1576.684
56.58	1583.01
56.6	1511.811
56.62	1453.208
56.64	1485.148
56.66	1482.005
56.68	1479.51
56.7	1459.256
56.72	1445.679
56.74	1410.475
56.76	1376.313
56.78	1361.703
56.8	1408.44
56.82	1430.05
56.84	1485.011
56.86	1463.6
56.88	1450.724
56.9	1470.982
56.92	1484.448
56.94	1436.923
56.96	1443.93
56.98	1358.319
57	1453.757
57.02	1382.661
57.04	1386.86
57.06	1458.434
57.08	1424.474
57.1	1368.497
57.12	1295.365
57.14	1401.921
57.16	1405.424
57.18	1352.507
57.2	1426.614
57.22	1325.899
57.24	1365.994
57.26	1383.073
57.28	1411.951
57.3	1346.649
57.32	1339.686
57.34	1450.934
57.36	1291.789
57.38	1415.202
57.4	1308.536
57.42	1404.796
57.44	1331.795
57.46	1330.976
57.48	1347.897
57.5	1305.548
57.52	1359.205
57.54	1365.039
57.56	1363.553
57.58	1351.314
57.6	1325.099
57.62	1343.84
57.64	1368.395
57.66	1355.983
57.68	1250.546
57.7	1343.182
57.72	1362.114
57.74	1363.099
57.76	1283.005
57.78	1361.224
57.8	1335.099
57.82	1341.424
57.84	1333.689
57.86	1352.114
57.88	1296.34
57.9	1288.959
57.92	1286.389
57.94	1334.911
57.96	1259.631
57.98	1258.582
58	1353.583
58.02	1319.687
58.04	1323.75
58.06	1273.359
58.08	1340.339
58.1	1349.751
58.12	1292.57
58.14	1303.089
58.16	1273.527
58.18	1297.734
58.2	1327.474
58.22	1302.32
58.24	1308.555
58.26	1355.305
58.28	1321.667
58.3	1228.168
58.32	1320.99
58.34	1234.819
58.36	1287.398
58.38	1309.881
58.4	1275.709
58.42	1316.655
58.44	1327.904
58.46	1336.026
58.48	1266.699
58.5	1294.566
58.52	1342.838
58.54	1318.433
58.56	1281.78
58.58	1237.188
58.6	1289.191
58.62	1318.179
58.64	1138.705
58.66	1163.816
58.68	1257.904
58.7	1271.062
58.72	1211.102
58.74	1261.266
58.76	1353.62
58.78	1299.22
58.8	1269.095
58.82	1264.112
58.84	1291.344
58.86	1329.439
58.88	1350.611
58.9	1329.983
58.92	1348.153
58.94	1316.877
58.96	1265.273
58.98	1278.939
59	1211.29
59.02	1266.114
59.04	1260.203
59.06	1293.37
59.08	1247.725
59.1	1304.472
59.12	1320.51
59.14	1201.494
59.16	1257.699
59.18	1284.768
59.2	1307.133
59.22	1206.915
59.24	1218.486
59.26	1251.51
59.28	1279.921
59.3	1343.387
59.32	1325.288
59.34	1227.524
59.36	1265.941
59.38	1267.485
59.4	1248.308
59.42	1249.488
59.44	1257.373
59.46	1306.357
59.48	1310.616
59.5	1240.505
59.52	1308.202
59.54	1315.884
59.56	1292.921
59.58	1316.487
59.6	1264.365
59.62	1362.978
59.64	1273.456
59.66	1300.962
59.68	1311.029
59.7	1283.53
59.72	1267.226
59.74	1255.47
59.76	1288.445
59.78	1335.428
59.8	1301.103
59.82	1307.01
59.84	1275.7
59.86	1348.498
59.88	1299.791
59.9	1283.616
59.92	1177.092
59.94	1315.572
59.96	1276.999
59.98	1265.445
60	1257.615
60.02	1283.709
60.04	1201.489
60.06	1204.457
60.08	1280.404
60.1	1283.967
60.12	1335.879
60.14	1302.854
60.16	1265.219
60.18	1238.592
60.2	1263.024
60.22	1301.935
60.24	1295.58
60.26	1357.634
60.28	1293.488
60.3	1235.006
60.32	1262.949
60.34	1294.283
60.36	1316.784
60.38	1205.916
60.4	1238.979
60.42	1218.888
60.44	1328.671
60.46	1320.896
60.48	1308.749
60.5	1302.948
60.52	1309.366
60.54	1208.249
60.56	1360.607
60.58	1278.047
60.6	1360.347
60.62	1357.469
60.64	1354.108
60.66	1323.488
60.68	1269.334
60.7	1285.897
60.72	1259.766
60.74	1259.921
60.76	1313.626
60.78	1260.32
60.8	1322.126
60.82	1251.865
60.84	1276.148
60.86	1218.678
60.88	1243.901
60.9	1247.038
60.92	1313.396
60.94	1283.565
60.96	1268.629
60.98	1314.492
61	1363.449
61.02	1288.97
61.04	1351.85
61.06	1268.251
61.08	1281.21
61.1	1313.127
61.12	1252.573
61.14	1299.129
61.16	1239.234
61.18	1285.289
61.2	1329.186
61.22	1331.093
61.24	1262.743
61.26	1282.619
61.28	1272.318
61.3	1267.349
61.32	1234.38
61.34	1266.842
61.36	1256.689
61.38	1238.44
61.4	1345.622
61.42	1300.627
61.44	1220.167
61.46	1251.499
61.48	1350.039
61.5	1337.372
61.52	1241.903
61.54	1267.45
61.56	1289.694
61.58	1244.557
61.6	1261.761
61.62	1406.224
61.64	1307.775
61.66	1269.581
61.68	1263.151
61.7	1283.784
61.72	1350.438
61.74	1346.997
61.76	1374.725
61.78	1238.646
61.8	1203.952
61.82	1340.748
61.84	1305.38
61.86	1322.472
61.88	1295.453
61.9	1262.965
61.92	1373.723
61.94	1292.588
61.96	1252.843
61.98	1321.083
62	1416.968
62.02	1316.236
62.04	1350.753
62.06	1363.241
62.08	1415.271
62.1	1278.902
62.12	1342.773
62.14	1374.598
62.16	1401.588
62.18	1367.695
62.2	1368.108
62.22	1438.161
62.24	1393.565
62.26	1463.215
62.28	1413.145
62.3	1427.286
62.32	1519.699
62.34	1438.426
62.36	1440.596
62.38	1500.126
62.4	1529.175
62.42	1607.172
62.44	1663.462
62.46	1651.609
62.48	1664.359
62.5	1773.651
62.52	1996.377
62.54	1945.271
62.56	2123.918
62.58	2199.24
62.6	2334.29
62.62	2605.265
62.64	2658.303
62.66	2942.032
62.68	3377.714
62.7	3605.041
62.72	3968.198
62.74	4471.179
62.76	4998.827
62.78	5566.744
62.8	6492.23
62.82	7255.601
62.84	8023.598
62.86	8799.654
62.88	8972.654
62.9	8633.48
62.92	7675.802
62.94	6890.018
62.96	6305.339
62.98	5984.595
63	5603.18
63.02	5448.323
63.04	5383.583
63.06	5147.867
63.08	4631.256
63.1	4117.489
63.12	3390.832
63.14	2985.137
63.16	2457.482
63.18	2218.208
63.2	2209.401
63.22	1894.216
63.24	1861.065
63.26	1763.977
63.28	1503.74
63.3	1493.296
63.32	1500.883
63.34	1496.391
63.36	1408.432
63.38	1443.06
63.4	1404.949
63.42	1419.925
63.44	1403.834
63.46	1438.481
63.48	1297.516
63.5	1360.337
63.52	1434.604
63.54	1340.356
63.56	1425.629
63.58	1297.471
63.6	1365.387
63.62	1366.187
63.64	1346.111
63.66	1327.109
63.68	1276.285
63.7	1336.201
63.72	1319.058
63.74	1252.216
63.76	1269.32
63.78	1268.18
63.8	1305.856
63.82	1313.783
63.84	1206.51
63.86	1243.534
63.88	1277.842
63.9	1274.166
63.92	1233.123
63.94	1358.811
63.96	1252.613
63.98	1276.497
64	1296.246
64.02	1280.568
64.04	1299.377
64.06	1247.875
64.08	1247.332
64.1	1248.804
64.12	1297.368
64.14	1307.892
64.16	1229.595
64.18	1276.71
64.2	1346.852
64.22	1215.775
64.24	1222.792
64.26	1226.512
64.28	1247.958
64.3	1252.009
64.32	1176.963
64.34	1170.527
64.36	1195.667
64.38	1218.868
64.4	1261.421
64.42	1173.787
64.44	1234.878
64.46	1203.749
64.48	1221.122
64.5	1227.609
64.52	1250.797
64.54	1260.175
64.56	1231.393
64.58	1269.148
64.6	1230.288
64.62	1141.799
64.64	1222.112
64.66	1257.175
64.68	1219.576
64.7	1195.433
64.72	1263.623
64.74	1282.902
64.76	1329.688
64.78	1207.291
64.8	1270.705
64.82	1238.67
64.84	1294.981
64.86	1179.904
64.88	1187.429
64.9	1291.382
64.92	1274.983
64.94	1261.699
64.96	1190.56
64.98	1180.706
65	1210.126
65.02	1256.718
65.04	1255.787
65.06	1186.548
65.08	1179.951
65.1	1188.494
65.12	1242.511
65.14	1200.639
65.16	1201.416
65.18	1223.686
65.2	1280.007
65.22	1230.05
65.24	1247.12
65.26	1201.047
65.28	1160.949
65.3	1251.784
65.32	1189.41
65.34	1201.114
65.36	1298.315
65.38	1285.933
65.4	1258.838
65.42	1252.677
65.44	1233.02
65.46	1200.084
65.48	1222.292
65.5	1224.48
65.52	1237.539
65.54	1248.082
65.56	1306.783
65.58	1227.71
65.6	1253.474
65.62	1243.95
65.64	1263.29
65.66	1221.924
65.68	1253.542
65.7	1203.443
65.72	1233.149
65.74	1237.141
65.76	1212.62
65.78	1205.1
65.8	1177.391
65.82	1205.877
65.84	1198.401
65.86	1267.943
65.88	1205.839
65.9	1209.471
65.92	1110.998
65.94	1188.09
65.96	1142.304
65.98	1242.901
66	1160.522
66.02	1222.595
66.04	1223.78
66.06	1165.631
66.08	1193.409
66.1	1202.715
66.12	1164.018
66.14	1252.759
66.16	1220.025
66.18	1182.678
66.2	1288.085
66.22	1189.474
66.24	1270.057
66.26	1242.238
66.28	1179.568
66.3	1164.077
66.32	1236.702
66.34	1259.991
66.36	1223.338
66.38	1127.609
66.4	1228.255
66.42	1247.872
66.44	1200.952
66.46	1144.687
66.48	1256.94
66.5	1183.416
66.52	1248.242
66.54	1251.966
66.56	1217.845
66.58	1249.876
66.6	1185.467
66.62	1205.241
66.64	1231.21
66.66	1245.349
66.68	1181.066
66.7	1202.44
66.72	1175.823
66.74	1186.657
66.76	1224.728
66.78	1220.816
66.8	1228.446
66.82	1265.081
66.84	1242.545
66.86	1244.418
66.88	1110.852
66.9	1164.985
66.92	1190.515
66.94	1153.698
66.96	1121.386
66.98	1164.085
67	1214.195
67.02	1194.985
67.04	1138.319
67.06	1175.546
67.08	1246.765
67.1	1133.666
67.12	1276.536
67.14	1237.546
67.16	1272.151
67.18	1223.188
67.2	1143.603
67.22	1144.745
67.24	1180.418
67.26	1196.81
67.28	1220.365
67.3	1207.011
67.32	1160.957
67.34	1153.186
67.36	1225.939
67.38	1135.552
67.4	1149.99
67.42	1181.419
67.44	1173.643
67.46	1168.576
67.48	1205.962
67.5	1201.768
67.52	1239.883
67.54	1183.019
67.56	1177.934
67.58	1177.238
67.6	1210.797
67.62	1187.038
67.64	1209.742
67.66	1245.784
67.68	1214.021
67.7	1128.696
67.72	1150.588
67.74	1290.464
67.76	1217.112
67.78	1228.33
67.8	1198.653
67.82	1229.698
67.84	1201.507
67.86	1209.96
67.88	1231.097
67.9	1212.396
67.92	1256.913
67.94	1221.935
67.96	1250.688
67.98	1219.579
68	1201.409
68.02	1273.35
68.04	1244.166
68.06	1208.725
68.08	1171.38
68.1	1254.154
68.12	1239.478
68.14	1127.057
68.16	1179.516
68.18	1205.21
68.2	1133.104
68.22	1169.613
68.24	1224.493
68.26	1258.186
68.28	1237.838
68.3	1146.951
68.32	1288.917
68.34	1182.068
68.36	1133.785
68.38	1279.877
68.4	1144.137
68.42	1145.646
68.44	1190.794
68.46	1196.901
68.48	1223.686
68.5	1239.366
68.52	1187.732
68.54	1165.194
68.56	1205.29
68.58	1229.416
68.6	1252.209
68.62	1144.517
68.64	1204.423
68.66	1187.251
68.68	1235.842
68.7	1209.853
68.72	1244.283
68.74	1262.29
68.76	1260.128
68.78	1209.364
68.8	1214.585
68.82	1279.199
68.84	1204.683
68.86	1237.497
68.88	1230.543
68.9	1279.26
68.92	1184.59
68.94	1224.736
68.96	1251.813
68.98	1209.443
69	1227.198
69.02	1271.028
69.04	1229.935
69.06	1294.518
69.08	1213.654
69.1	1259.88
69.12	1157.58
69.14	1258.545
69.16	1230.604
69.18	1259.009
69.2	1249.528
69.22	1203.821
69.24	1239.573
69.26	1289.038
69.28	1275.86
69.3	1273.528
69.32	1236.44
69.34	1301.784
69.36	1325.51
69.38	1328.136
69.4	1255.214
69.42	1273.083
69.44	1307.152
69.46	1278.497
69.48	1248.881
69.5	1287.669
69.52	1251.199
69.54	1300.407
69.56	1324.443
69.58	1372.066
69.6	1369.244
69.62	1301.126
69.64	1380.662
69.66	1332.757
69.68	1392.177
69.7	1354.295
69.72	1425.349
69.74	1377.936
69.76	1425.679
69.78	1473.78
69.8	1457.07
69.82	1457.137
69.84	1469.094
69.86	1482.711
69.88	1480.828
69.9	1543.394
69.92	1577.247
69.94	1620.823
69.96	1589.643
69.98	1642.201
70	1649.273
70.02	1682.289
70.04	1740.752
70.06	1764.825
70.08	1851.249
70.1	1957.684
70.12	1977.303
70.14	2078.01
70.16	2201.918
70.18	2299.74
70.2	2410.507
70.22	2499.631
70.24	2645.945
70.26	2908.944
70.28	3268.735
70.3	3544.688
70.32	3843.215
70.34	4196.154
70.36	4646.866
70.38	5234.572
70.4	5791.915
70.42	6250.385
70.44	6713.965
70.46	7260.224
70.48	7188.866
70.5	7132.848
70.52	6753.17
70.54	6326.729
70.56	5650.156
70.58	5249.436
70.6	4823.992
70.62	4598.213
70.64	4562.727
70.66	4452.105
70.68	4324.669
70.7	4058.659
70.72	3998.576
70.74	3464.582
70.76	3017.936
70.78	2623.265
70.8	2344.759
70.82	2110.672
70.84	1889.906
70.86	1799.807
70.88	1688.115
70.9	1688.871
70.92	1500.233
70.94	1535.779
70.96	1512.609
70.98	1404.885
71	1390.021
71.02	1381.421
71.04	1405.775
71.06	1392.992
71.08	1356.398
71.1	1350.636
71.12	1325.004
71.14	1250.349
71.16	1281.752
71.18	1273.666
71.2	1278.755
71.22	1206.646
71.24	1180.415
71.26	1285.232
71.28	1258.319
71.3	1239.679
71.32	1242.118
71.34	1140.017
71.36	1239.309
71.38	1221.188
71.4	1196.541
71.42	1204.245
71.44	1216.712
71.46	1178.953
71.48	1177.088
71.5	1195.512
71.52	1174.94
71.54	1194.707
71.56	1138.326
71.58	1188.738
71.6	1292.768
71.62	1081.089
71.64	1199.478
71.66	1129.758
71.68	1189.568
71.7	1189.364
71.72	1121.82
71.74	1180.536
71.76	1171.36
71.78	1127.22
71.8	1220.356
71.82	1223.01
71.84	1158.968
71.86	1140.726
71.88	1215.048
71.9	1153.627
71.92	1085.505
71.94	1111.2
71.96	1137.045
71.98	1187.99
72	1119.582
72.02	1235.705
72.04	1183.475
72.06	1121.278
72.08	1203.935
72.1	1084.484
72.12	1098.892
72.14	1170.367
72.16	1061.642
72.18	1118.017
72.2	1141.833
72.22	1156.693
72.24	1154.311
72.26	1081.942
72.28	1152.901
72.3	1194.044
72.32	1052.356
72.34	1115.296
72.36	1149.052
72.38	1163.832
72.4	1101.894
72.42	1101.199
72.44	1205.754
72.46	1149.799
72.48	1144.479
72.5	1133.563
72.52	1083.547
72.54	1093.674
72.56	1111.394
72.58	1013.691
72.6	1113.968
72.62	1140.043
72.64	1086.965
72.66	1122.175
72.68	1143.373
72.7	1165.154
72.72	995.0885
72.74	1153.968
72.76	1165.989
72.78	1176.822
72.8	1114.631
72.82	1082.327
72.84	1126.37
72.86	1129.621
72.88	1079.125
72.9	1112.153
72.92	1127.837
72.94	1102.486
72.96	1171.157
72.98	1149.386
73	1066.086
73.02	1106.042
73.04	1127.932
73.06	1107.212
73.08	1184.127
73.1	1102.052
73.12	1121.129
73.14	1119.235
73.16	1202.066
73.18	1160.78
73.2	1041.344
73.22	1128.827
73.24	1149.602
73.26	1130.497
73.28	1099.85
73.3	1170.079
73.32	1170.282
73.34	1114.535
73.36	1176.806
73.38	1107.064
73.4	1106.079
73.42	1149.085
73.44	1166.166
73.46	1132.785
73.48	1148.083
73.5	1120.11
73.52	1207.875
73.54	1138.415
73.56	1135.064
73.58	1178.541
73.6	1089.111
73.62	1157.651
73.64	1122.795
73.66	1193.605
73.68	1144.752
73.7	1138.822
73.72	1142.317
73.74	1198.663
73.76	1250.342
73.78	1267.485
73.8	1246.064
73.82	1202.969
73.84	1235.673
73.86	1368.245
73.88	1394.204
73.9	1313.545
73.92	1272.335
73.94	1348.547
73.96	1434.922
73.98	1405.513
74	1467.939
74.02	1461.176
74.04	1549.13
74.06	1466.559
74.08	1514.958
74.1	1569.795
74.12	1602.113
74.14	1487.903
74.16	1425.244
74.18	1396.526
74.2	1397.395
74.22	1402.288
74.24	1373.267
74.26	1375.789
74.28	1319.201
74.3	1333.88
74.32	1327.038
74.34	1281.5
74.36	1212.995
74.38	1217.895
74.4	1218.353
74.42	1193.955
74.44	1193.462
74.46	1118.81
74.48	1141.392
74.5	1182.233
74.52	1164.611
74.54	1142.453
74.56	1121.825
74.58	1145.132
74.6	1162.395
74.62	1187.969
74.64	1133.2
74.66	1142.848
74.68	1143.499
74.7	1126.065
74.72	1090.067
74.74	1106.386
74.76	1151.798
74.78	1086.531
74.8	1178.182
74.82	1138.07
74.84	1190.008
74.86	1163.894
74.88	1138.657
74.9	1158.08
74.92	1056.137
74.94	1207.759
74.96	1087.376
74.98	1080.201
75	1119.307
75.02	1121.761
75.04	1135.454
75.06	1084.854
75.08	1086.518
75.1	1150.673
75.12	1159.043
75.14	1235.373
75.16	1194.718
75.18	1172.414
75.2	1185.648
75.22	1147.073
75.24	1176.342
75.26	1209.483
75.28	1248.204
75.3	1254.869
75.32	1116.804
75.34	1207.915
75.36	1147.163
75.38	1241.893
75.4	1274.469
75.42	1234.686
75.44	1176.917
75.46	1273.792
75.48	1357.113
75.5	1317.319
75.52	1276.912
75.54	1420.061
75.56	1346.284
75.58	1399.141
75.6	1432.548
75.62	1428.28
75.64	1507.067
75.66	1495.045
75.68	1638.006
75.7	1691.732
75.72	1739.126
75.74	1924.572
75.76	1934.155
75.78	2095.719
75.8	2272.693
75.82	2364.328
75.84	2547.164
75.86	2860.642
75.88	3060.155
75.9	3411.819
75.92	3800.555
75.94	4224.723
75.96	4681.082
75.98	4982.697
76	5347.477
76.02	5866.56
76.04	5965.443
76.06	6280.255
76.08	6380.605
76.1	6505.405
76.12	6146.522
76.14	5924.764
76.16	5391.874
76.18	5050.006
76.2	4758.683
76.22	4406.972
76.24	4263.469
76.26	4170.985
76.28	4158.237
76.3	3831.934
76.32	3778.161
76.34	3580.386
76.36	3278.26
76.38	3097.066
76.4	2682.822
76.42	2404.291
76.44	2083.76
76.46	1925.059
76.48	1718.148
76.5	1627.847
76.52	1536.999
76.54	1429.854
76.56	1428.894
76.58	1388.279
76.6	1390.976
76.62	1328.553
76.64	1342.039
76.66	1270.577
76.68	1317.272
76.7	1347.517
76.72	1363.043
76.74	1319.899
76.76	1230.631
76.78	1283.952
76.8	1271.218
76.82	1339.354
76.84	1376.16
76.86	1275.19
76.88	1343.637
76.9	1459.289
76.92	1494.826
76.94	1502.389
76.96	1448.281
76.98	1468.285
77	1626.914
77.02	1579.942
77.04	1652.127
77.06	1686.021
77.08	1923.707
77.1	1916.716
77.12	2043.107
77.14	2134.218
77.16	2182.801
77.18	2281.082
77.2	2448.574
77.22	2503.498
77.24	2567.735
77.26	2492.139
77.28	2540.119
77.3	2419.371
77.32	2491.039
77.34	2389.289
77.36	2294.006
77.38	2172.3
77.4	2138.853
77.42	2049.367
77.44	1936.784
77.46	1976.433
77.48	1987.348
77.5	1817.819
77.52	1753.074
77.54	1684.953
77.56	1653.042
77.58	1451.704
77.6	1507.897
77.62	1377.955
77.64	1359.103
77.66	1289.289
77.68	1305.968
77.7	1278.408
77.72	1177.774
77.74	1180.72
77.76	1151.458
77.78	1138.093
77.8	1175.583
77.82	1101.702
77.84	1082.419
77.86	1061.193
77.88	1097.674
77.9	1069.528
77.92	1123.824
77.94	1063.226
77.96	1069.011
77.98	1141.945
78	1015.646
78.02	1106.536
78.04	1157.83
78.06	1060.56
78.08	1078.957
78.1	1104.465
78.12	1080.52
78.14	1095.931
78.16	1140.254
78.18	1067.548
78.2	1099.82
78.22	1086.565
78.24	1038.188
78.26	1006.53
78.28	1062.912
78.3	1089.442
78.32	1068.581
78.34	1142.215
78.36	1033.589
78.38	1088.805
78.4	1021.209
78.42	1077.444
78.44	1036.198
78.46	1096.319
78.48	1041.659
78.5	1108.279
78.52	1124.153
78.54	1046.498
78.56	1036.49
78.58	1064.87
78.6	989.5679
78.62	1098.963
78.64	968.9518
78.66	1118.399
78.68	1070.205
78.7	1040.988
78.72	1014.603
78.74	1023.873
78.76	1025.288
78.78	985.4725
78.8	1118.851
78.82	1088.454
78.84	1083.445
78.86	1026.448
78.88	1048.052
78.9	1079.216
78.92	1113.627
78.94	1072.074
78.96	1023.456
78.98	1128.546
79	1066.764
79.02	1057.519
79.04	1119.411
79.06	1033.995
79.08	1066.427
79.1	1026.585
79.12	1036.889
79.14	1086.195
79.16	1067.391
79.18	1059.151
79.2	1074.922
79.22	1078.851
79.24	1097.38
79.26	982.7704
79.28	995.0322
79.3	1008.151
79.32	1023.968
79.34	1012.651
79.36	1093.565
79.38	967.4678
79.4	1089.201
79.42	1034.405
79.44	1038.089
79.46	1091.143
79.48	1014.703
79.5	935.1707
79.52	1055.543
79.54	1102.167
79.56	1014.544
79.58	1030.176
79.6	997.4194
79.62	1001.105
79.64	1066.754
79.66	980.4211
79.68	1016.409
79.7	1050.941
79.72	1137.535
79.74	1054.719
79.76	1078.636
79.78	1090.164
79.8	1091.62
79.82	1015.71
79.84	1019.591
79.86	1021.436
79.88	1040.215
79.9	1022.559
79.92	1041.593
79.94	1018.933
79.96	1058.173
79.98	979.6999
80	946.5762
80.02	957.0887
80.04	1023.74
80.06	1066.445
80.08	1074.523
80.1	1029.884
80.12	1048.052
80.14	1066.96
80.16	1023.562
80.18	1001.927
80.2	1006.591
80.22	1048.564
80.24	1022.933
80.26	1020.532
80.28	1000.316
80.3	1007.339
80.32	953.7957
80.34	1000.092
80.36	1023.378
80.38	1025.459
80.4	1001.733
80.42	979.0877
80.44	950.1653
80.46	984.6224
80.48	1023.931
80.5	987.4691
80.52	1028.066
80.54	948.3072
80.56	1043.175
80.58	1021.216
80.6	1048.794
80.62	932.5126
80.64	1030.683
80.66	1022.581
80.68	967.1616
80.7	1006.735
80.72	1039.018
80.74	1017.385
80.76	1012.724
80.78	1002.01
80.8	1048.073
80.82	980.47
80.84	995.9468
80.86	943.1082
80.88	942.75
80.9	939.3395
80.92	950.8578
80.94	989.2525
80.96	959.4828
80.98	956.6898
81	1024.86
81.02	958.1284
81.04	978.2744
81.06	1002.109
81.08	963.5175
81.1	1041.298
81.12	975.4247
81.14	982.4077
81.16	1013.305
81.18	990.2991
81.2	1004.474
81.22	937.6761
81.24	1004.807
81.26	1010.519
81.28	1022.52
81.3	1011.788
81.32	1010.181
81.34	973.6597
81.36	1047.5
81.38	1001.432
81.4	1033.698
81.42	998.9059
81.44	1019.599
81.46	1003.219
81.48	1069.246
81.5	1013.504
81.52	1080.261
81.54	1022.315
81.56	1018.462
81.58	1069.36
81.6	1075.184
81.62	986.3929
81.64	985.3537
81.66	1063.956
81.68	1059.151
81.7	1018.901
81.72	948.5067
81.74	987.7563
81.76	1018.759
81.78	1051.06
81.8	999.0953
81.82	1006.951
81.84	1058.603
81.86	996.7139
81.88	1013.695
81.9	1035.532
81.92	1125.724
81.94	1073.431
81.96	1074.566
81.98	1051.536
82	1145.369
82.02	1122.548
82.04	1085.913
82.06	1099.765
82.08	1069.049
82.1	1084.769
82.12	1051.93
82.14	1057.641
82.16	1066.714
82.18	1049.835
82.2	1082.349
82.22	987.8312
82.24	1060.351
82.26	1142.48
82.28	1051.416
82.3	1029.717
82.32	1045.451
82.34	1129.547
82.36	1049.376
82.38	966.1282
82.4	1040.1
82.42	1020.233
82.44	1084.064
82.46	1063.86
82.48	1076.631
82.5	1009.418
82.52	1053.346
82.54	933.8091
82.56	1031.396
82.58	1058.549
82.6	1019.028
82.62	1037.473
82.64	984.0613
82.66	1002.565
82.68	1058.898
82.7	1056.095
82.72	1078.699
82.74	1019.978
82.76	1014.491
82.78	1013.638
82.8	1015.122
82.82	1037.053
82.84	1055.364
82.86	999.4949
82.88	1042.112
82.9	1079.21
82.92	992.8947
82.94	1060.494
82.96	1066.173
82.98	1019.777
83	914.4106
83.02	965.0779
83.04	1039.211
83.06	965.8954
83.08	1018.514
83.1	1071.575
83.12	1027.221
83.14	1030.866
83.16	1022.041
83.18	1030.262
83.2	1012.99
83.22	1017.624
83.24	1060.563
83.26	1032.43
83.28	1044.584
83.3	1026.187
83.32	1106.873
83.34	952.8981
83.36	1008.785
83.38	1005.093
83.4	982.7575
83.42	1059.716
83.44	991.6286
83.46	1053.834
83.48	1050.215
83.5	943.5438
83.52	1024.005
83.54	1062.927
83.56	1017.167
83.58	1049.319
83.6	1009.253
83.62	996.5663
83.64	1002.319
83.66	1012.869
83.68	1006.12
83.7	957.3336
83.72	1006.819
83.74	1030.309
83.76	932.8039
83.78	969.6092
83.8	958.7053
83.82	1057.689
83.84	965.1295
83.86	919.6528
83.88	968.2556
83.9	1015.485
83.92	930.2878
83.94	931.3911
83.96	1028.41
83.98	995.1695
84	896.139
84.02	984.3466
84.04	949.8842
84.06	843.445
84.08	938.8095
84.1	995.0021
84.12	967.403
84.14	975.2064
84.16	951.0224
84.18	996.4526
84.2	1001.873
84.22	977.8179
84.24	937.2147
84.26	1000.534
84.28	922.2477
84.3	989.2231
84.32	984.8518
84.34	1022.584
84.36	986.7824
84.38	970.2413
84.4	1064.043
84.42	1021.463
84.44	983.7869
84.46	951.9595
84.48	1000.774
84.5	964.2067
84.52	964.2745
84.54	952.8983
84.56	943.0511
84.58	1013.404
84.6	947.9128
84.62	936.8829
84.64	928.8381
84.66	947.5102
84.68	971.3973
84.7	922.3566
84.72	1006.802
84.74	1010.72
84.76	909.7457
84.78	996.1782
84.8	1016.278
84.82	952.7916
84.84	1025.208
84.86	935.3597
84.88	906.8265
84.9	963.7903
84.92	946.2175
84.94	952.5589
84.96	917.8503
84.98	936.3596
85	1020.33
85.02	923.5434
85.04	978.6215
85.06	953.5873
85.08	947.9409
85.1	1002.972
85.12	973.2773
85.14	992.2822
85.16	906.1179
85.18	892.5773
85.2	1023.827
85.22	998.3238
85.24	1010.053
85.26	1016.844
85.28	871.9656
85.3	926.8809
85.32	893.4236
85.34	937.0624
85.36	966.1848
85.38	1018.938
85.4	919.9813
85.42	1019.854
85.44	979.7293
85.46	919.0067
85.48	903.899
85.5	896.0223
85.52	928.6823
85.54	967.928
85.56	989.0899
85.58	903.2217
85.6	934.8563
85.62	920.5869
85.64	924.0022
85.66	969.0401
85.68	975.1214
85.7	1002.351
85.72	979.1902
85.74	958.4374
85.76	975.8249
85.78	950.324
85.8	963.988
85.82	898.1581
85.84	935.7612
85.86	966.828
85.88	996.685
85.9	1009.292
85.92	963.5229
85.94	1001.263
85.96	990.8236
85.98	905.0142
86	1020.301
86.02	1000.062
86.04	1017.92
86.06	1003.32
86.08	1029.187
86.1	1110.268
86.12	1003.747
86.14	980.506
86.16	997.9252
86.18	941.9752
86.2	996.8639
86.22	1054.341
86.24	1041.047
86.26	1057.363
86.28	1103.491
86.3	1152.81
86.32	1112.546
86.34	1136.584
86.36	1165.038
86.38	1150.813
86.4	1183.602
86.42	1202.186
86.44	1292.192
86.46	1314.124
86.48	1338.091
86.5	1424.068
86.52	1429.87
86.54	1423.072
86.56	1574.359
86.58	1640.125
86.6	1649.122
86.62	1701.794
86.64	1746.586
86.66	1774.463
86.68	1719.827
86.7	1683.36
86.72	1581.103
86.74	1470.952
86.76	1525.097
86.78	1432.951
86.8	1357.205
86.82	1375.304
86.84	1343.897
86.86	1281.696
86.88	1470.211
86.9	1341.538
86.92	1321.523
86.94	1322.782
86.96	1281.627
86.98	1194.998
87	1178.553
87.02	1269.338
87.04	1079.466
87.06	1065.472
87.08	1095.269
87.1	1089.713
87.12	1027.871
87.14	925.9625
87.16	958.9962
87.18	913.0977
87.2	887.9097
87.22	971.7672
87.24	915.0965
87.26	931.7413
87.28	931.7304
87.3	921.0132
87.32	980.7702
87.34	947.4066
87.36	1006.661
87.38	923.5012
87.4	865.2861
87.42	1010.593
87.44	917.1097
87.46	1020.357
87.48	969.1673
87.5	937.34
87.52	900.7558
87.54	918.5352
87.56	929.851
87.58	986.5349
87.6	926.6407
87.62	985.3152
87.64	879.8503
87.66	923.9255
87.68	994.2667
87.7	924.7896
87.72	972.4915
87.74	872.2724
87.76	950.054
87.78	882.2549
87.8	899.6259
87.82	964.942
87.84	975.7945
87.86	951.1916
87.88	923.7557
87.9	900.1061
87.92	970.0958
87.94	922.8815
87.96	895.159
87.98	948.6407
88	963.1805
88.02	881.1017
88.04	918.5603
88.06	926.087
88.08	902.0145
88.1	871.9607
88.12	917.0771
88.14	938.5994
88.16	866.572
88.18	959.8047
88.2	920.6664
88.22	927.2227
88.24	873.0223
88.26	922.7468
88.28	910.4502
88.3	897.1066
88.32	890.0759
88.34	981.3102
88.36	864.606
88.38	910.0654
88.4	952.7955
88.42	946.1382
88.44	886.5806
88.46	914.079
88.48	926.633
88.5	980.9509
88.52	918.1047
88.54	915.4251
88.56	912.5625
88.58	927.4005
88.6	905.1476
88.62	881.6138
88.64	966.1708
88.66	939.3381
88.68	950.2411
88.7	953.1306
88.72	878.8102
88.74	912.2756
88.76	971.1808
88.78	953.6221
88.8	903.6442
88.82	959.5258
88.84	928.3022
88.86	961.9887
88.88	899.4637
88.9	890.0938
88.92	913.2949
88.94	866.0079
88.96	941.9943
88.98	877.7737
89	891.431
89.02	1010.256
89.04	916.8695
89.06	998.4836
89.08	951.6086
89.1	909.1435
89.12	932.1396
89.14	939.2567
89.16	830.4311
89.18	886.3693
89.2	942.1557
89.22	883.5156
89.24	871.8117
89.26	894.5773
89.28	905.3331
89.3	969.3124
89.32	882.2292
89.34	886.24
89.36	877.2419
89.38	902.4565
89.4	994.6798
89.42	959.0441
89.44	907.288
89.46	894.8777
89.48	885.508
89.5	908.9717
89.52	843.4472
89.54	923.7943
89.56	917.9804
89.58	938.1225
89.6	936.2725
89.62	929.9656
89.64	867.0381
89.66	955.7692
89.68	966.7786
89.7	921.0201
89.72	915.7615
89.74	889.7596
89.76	866.0528
89.78	872.8671
89.8	934.0159
89.82	899.6536
89.84	965.491
89.86	943.4843
89.88	872.9015
89.9	856.8837
89.92	983.706
89.94	922.6797
89.96	886.2186
89.98	896.4146
90	836.9124
